#K-Path(1/A) Energy-Level(eV)
# NKPTS & NBANDS: 100  56
# Band-Index    1
   0.00000     -9.304115
   0.09148     -9.270401
   0.18296     -9.169469
   0.27443     -9.002224
   0.36591     -8.770216
   0.45739     -8.475879
   0.54887     -8.122937
   0.64035     -7.716952
   0.73183     -7.266631
   0.82330     -6.785587
   0.91478     -6.296059
   1.00626     -5.832018
   1.09774     -5.437834
   1.18922     -5.150411
   1.28070     -4.972527
   1.37217     -4.883088
   1.46365     -4.843110
   1.55513     -4.830247
   1.64661     -4.827301
   1.73809     -4.828353
   1.73809     -4.828353
   1.78383     -4.823281
   1.82957     -4.810345
   1.87530     -4.790942
   1.92104     -4.764064
   1.96678     -4.730097
   2.01252     -4.689556
   2.05826     -4.643082
   2.10400     -4.591462
   2.14974     -4.535647
   2.19548     -4.476756
   2.24122     -4.416112
   2.28696     -4.355247
   2.33270     -4.295919
   2.37844     -4.240107
   2.42417     -4.190008
   2.46991     -4.147825
   2.51565     -4.115749
   2.56139     -4.095651
   2.60713     -4.088799
   2.60713     -4.088799
   2.63947     -4.089728
   2.67182     -4.092433
   2.70416     -4.096791
   2.73650     -4.102687
   2.76884     -4.110010
   2.80119     -4.118059
   2.83353     -4.127993
   2.86587     -4.139580
   2.89821     -4.151389
   2.93056     -4.164136
   2.96290     -4.177494
   2.99524     -4.190723
   3.02758     -4.203539
   3.05993     -4.215446
   3.09227     -4.225955
   3.12461     -4.234620
   3.15695     -4.241076
   3.18930     -4.244987
   3.22164     -4.246333
   3.22164     -4.246333
   3.31866     -4.106697
   3.41569     -3.997637
   3.51272     -3.972549
   3.60975     -4.045003
   3.70677     -4.224534
   3.80380     -4.519669
   3.90083     -4.923091
   3.99786     -5.411799
   4.09488     -5.948249
   4.19191     -6.497486
   4.28894     -7.031877
   4.38597     -7.531509
   4.48299     -7.982709
   4.58002     -8.376064
   4.67705     -8.705053
   4.77408     -8.964991
   4.87110     -9.152734
   4.96813     -9.266190
   5.06516     -9.304115
   5.06516     -9.304115
   5.14438     -9.278832
   5.22360     -9.203083
   5.30282     -9.077497
   5.38205     -8.902985
   5.46127     -8.681079
   5.54049     -8.413888
   5.61971     -8.104638
   5.69894     -7.757602
   5.77816     -7.379373
   5.85738     -6.979465
   5.93660     -6.572158
   6.01583     -6.177618
   6.09505     -5.821544
   6.17427     -5.528723
   6.25350     -5.311985
   6.33272     -5.167060
   6.41194     -5.078449
   6.49116     -5.028405
   6.57039     -5.014082
 
# Band-Index    2
   6.57039     -3.003125
   6.49116     -2.999747
   6.41194     -2.990015
   6.33272     -2.973943
   6.25350     -2.952451
   6.17427     -2.926713
   6.09505     -2.901227
   6.01583     -3.073809
   5.93660     -3.170033
   5.85738     -3.211360
   5.77816     -3.215862
   5.69894     -3.196795
   5.61971     -3.163677
   5.54049     -3.122607
   5.46127     -3.080575
   5.38205     -3.043219
   5.30282     -3.009492
   5.22360     -2.983287
   5.14438     -2.966344
   5.06516     -2.960934
   5.06516     -2.960934
   4.96813     -2.969826
   4.87110     -2.995837
   4.77408     -3.039744
   4.67705     -3.094663
   4.58002     -3.157632
   4.48299     -3.226628
   4.38597     -3.294920
   4.28894     -3.359452
   4.19191     -3.414516
   4.09488     -3.455661
   3.99786     -3.478532
   3.90083     -3.480100
   3.80380     -3.456936
   3.70677     -3.445957
   3.60975     -3.585268
   3.51272     -3.722864
   3.41569     -3.838760
   3.31866     -3.924432
   3.22164     -4.005591
   3.22164     -4.005591
   3.18930     -4.004328
   3.15695     -4.000776
   3.12461     -3.994311
   3.09227     -3.985042
   3.05993     -3.972768
   3.02758     -3.957253
   2.99524     -3.938266
   2.96290     -3.915610
   2.93056     -3.889014
   2.89821     -3.858848
   2.86587     -3.825231
   2.83353     -3.787973
   2.80119     -3.747854
   2.76884     -3.705903
   2.73650     -3.661234
   2.70416     -3.615001
   2.67182     -3.567706
   2.63947     -3.519842
   2.60713     -3.471883
   2.60713     -3.471883
   2.56139     -3.564944
   2.51565     -3.652678
   2.46991     -3.735077
   2.42417     -3.811871
   2.37844     -3.882967
   2.33270     -3.949588
   2.28696     -4.010963
   2.24122     -4.067147
   2.19548     -4.118193
   2.14974     -4.164157
   2.10400     -4.205089
   2.05826     -4.241054
   2.01252     -4.272102
   1.96678     -4.298275
   1.92104     -4.319615
   1.87530     -4.336158
   1.82957     -4.347937
   1.78383     -4.355405
   1.73809     -4.358140
   1.73809     -4.358140
   1.64661     -4.348911
   1.55513     -4.322184
   1.46365     -4.278256
   1.37217     -4.218143
   1.28070     -4.142229
   1.18922     -4.054376
   1.09774     -3.955669
   1.00626     -3.848557
   0.91478     -3.735778
   0.82330     -3.620278
   0.73183     -3.507513
   0.64035     -3.396528
   0.54887     -3.292381
   0.45739     -3.198131
   0.36591     -3.116979
   0.27443     -3.049201
   0.18296     -3.000713
   0.09148     -2.970955
   0.00000     -2.960934
 
# Band-Index    3
   0.00000     -2.960931
   0.09148     -2.952911
   0.18296     -2.929294
   0.27443     -2.889688
   0.36591     -2.836351
   0.45739     -2.765954
   0.54887     -2.683069
   0.64035     -2.587350
   0.73183     -2.569998
   0.82330     -2.606755
   0.91478     -2.593882
   1.00626     -2.496536
   1.09774     -2.270918
   1.18922     -1.882766
   1.28070     -1.741494
   1.37217     -1.661791
   1.46365     -1.637078
   1.55513     -1.618435
   1.64661     -1.606974
   1.73809     -1.603425
   1.73809     -1.603425
   1.78383     -1.605528
   1.82957     -1.613536
   1.87530     -1.628363
   1.92104     -1.658154
   1.96678     -1.767475
   2.01252     -1.888831
   2.05826     -2.017244
   2.10400     -2.149607
   2.14974     -2.283532
   2.19548     -2.417231
   2.24122     -2.549337
   2.28696     -2.678819
   2.33270     -2.804887
   2.37844     -2.926972
   2.42417     -3.046619
   2.46991     -3.161405
   2.51565     -3.270016
   2.56139     -3.373547
   2.60713     -3.471878
   2.60713     -3.471878
   2.63947     -3.423315
   2.67182     -3.373464
   2.70416     -3.322559
   2.73650     -3.270856
   2.76884     -3.218644
   2.80119     -3.164868
   2.83353     -3.112844
   2.86587     -3.061386
   2.89821     -3.010163
   2.93056     -2.961328
   2.96290     -2.914636
   2.99524     -2.870674
   3.02758     -2.830190
   3.05993     -2.793950
   3.09227     -2.762753
   3.12461     -2.737404
   3.15695     -2.718643
   3.18930     -2.706088
   3.22164     -2.702214
   3.22164     -2.702214
   3.31866     -2.904344
   3.41569     -3.075069
   3.51272     -3.216896
   3.60975     -3.326679
   3.70677     -3.406320
   3.80380     -3.311768
   3.90083     -3.186595
   3.99786     -3.073357
   4.09488     -2.975745
   4.19191     -2.894913
   4.28894     -2.835035
   4.38597     -2.799837
   4.48299     -2.792146
   4.58002     -2.810521
   4.67705     -2.857528
   4.77408     -2.901919
   4.87110     -2.934422
   4.96813     -2.954272
   5.06516     -2.960931
   5.06516     -2.960931
   5.14438     -2.955994
   5.22360     -2.941600
   5.30282     -2.919063
   5.38205     -2.891192
   5.46127     -2.860391
   5.54049     -2.831727
   5.61971     -2.812080
   5.69894     -2.802058
   5.77816     -2.804854
   5.85738     -2.818392
   5.93660     -2.841233
   6.01583     -2.868860
   6.09505     -2.898191
   6.17427     -2.926713
   6.25350     -2.952451
   6.33272     -2.973943
   6.41194     -2.990015
   6.49116     -2.999747
   6.57039     -3.003125
 
# Band-Index    4
   6.57039     -1.575987
   6.49116     -1.583705
   6.41194     -1.608205
   6.33272     -1.852457
   6.25350     -2.275696
   6.17427     -2.634986
   6.09505     -2.898191
   6.01583     -2.868860
   5.93660     -2.841233
   5.85738     -2.818392
   5.77816     -2.804854
   5.69894     -2.802058
   5.61971     -2.812080
   5.54049     -2.831727
   5.46127     -2.860391
   5.38205     -2.891192
   5.30282     -2.919063
   5.22360     -2.941600
   5.14438     -2.955994
   5.06516     -2.960931
   5.06516     -2.960931
   4.96813     -2.952004
   4.87110     -2.926479
   4.77408     -2.889668
   4.67705     -2.847716
   4.58002     -2.801516
   4.48299     -2.735434
   4.38597     -2.660447
   4.28894     -2.577976
   4.19191     -2.489577
   4.09488     -2.489296
   3.99786     -2.497289
   3.90083     -2.490516
   3.80380     -2.467328
   3.70677     -2.426941
   3.60975     -2.369883
   3.51272     -2.298310
   3.41569     -2.212154
   3.31866     -2.118178
   3.22164     -2.018299
   3.22164     -2.018299
   3.18930     -2.019362
   3.15695     -2.022746
   3.12461     -2.027948
   3.09227     -2.035067
   3.05993     -2.043943
   3.02758     -2.054372
   2.99524     -2.066123
   2.96290     -2.078922
   2.93056     -2.092306
   2.89821     -2.106269
   2.86587     -2.121911
   2.83353     -2.135564
   2.80119     -2.148785
   2.76884     -2.162186
   2.73650     -2.172980
   2.70416     -2.181937
   2.67182     -2.188701
   2.63947     -2.192953
   2.60713     -2.194421
   2.60713     -2.194421
   2.56139     -2.188550
   2.51565     -2.171362
   2.46991     -2.144058
   2.42417     -2.106923
   2.37844     -2.064878
   2.33270     -2.018756
   2.28696     -1.970175
   2.24122     -1.920822
   2.19548     -1.872159
   2.14974     -1.825398
   2.10400     -1.781523
   2.05826     -1.741314
   2.01252     -1.705401
   1.96678     -1.674274
   1.92104     -1.648821
   1.87530     -1.563825
   1.82957     -1.490725
   1.78383     -1.444293
   1.73809     -1.429794
   1.73809     -1.429794
   1.64661     -1.442523
   1.55513     -1.484059
   1.46365     -1.550267
   1.37217     -1.636955
   1.28070     -1.741493
   1.18922     -1.858971
   1.09774     -1.983713
   1.00626     -2.111717
   0.91478     -2.239021
   0.82330     -2.362174
   0.73183     -2.480287
   0.64035     -2.587348
   0.54887     -2.683067
   0.45739     -2.765952
   0.36591     -2.836349
   0.27443     -2.889686
   0.18296     -2.929292
   0.09148     -2.952909
   0.00000     -2.960931
 
# Band-Index    5
   0.00000     -2.148960
   0.09148     -2.157845
   0.18296     -2.187099
   0.27443     -2.230855
   0.36591     -2.288909
   0.45739     -2.357056
   0.54887     -2.432400
   0.64035     -2.506770
   0.73183     -2.480285
   0.82330     -2.362172
   0.91478     -2.239019
   1.00626     -2.111716
   1.09774     -1.983712
   1.18922     -1.858970
   1.28070     -1.689494
   1.37217     -1.636954
   1.46365     -1.550267
   1.55513     -1.484059
   1.64661     -1.442523
   1.73809     -1.429794
   1.73809     -1.429794
   1.78383     -1.429637
   1.82957     -1.428088
   1.87530     -1.428157
   1.92104     -1.428207
   1.96678     -1.428239
   2.01252     -1.428255
   2.05826     -1.428252
   2.10400     -1.428231
   2.14974     -1.428198
   2.19548     -1.428152
   2.24122     -1.428096
   2.28696     -1.428028
   2.33270     -1.427946
   2.37844     -1.427854
   2.42417     -1.428165
   2.46991     -1.428181
   2.51565     -1.428167
   2.56139     -1.428160
   2.60713     -1.428156
   2.60713     -1.428156
   2.63947     -1.429109
   2.67182     -1.431970
   2.70416     -1.436738
   2.73650     -1.443387
   2.76884     -1.451870
   2.80119     -1.461714
   2.83353     -1.473605
   2.86587     -1.486976
   2.89821     -1.499910
   2.93056     -1.515699
   2.96290     -1.533209
   2.99524     -1.549946
   3.02758     -1.566386
   3.05993     -1.581945
   3.09227     -1.595976
   3.12461     -1.607813
   3.15695     -1.616831
   3.18930     -1.622407
   3.22164     -1.624325
   3.22164     -1.624325
   3.31866     -1.688974
   3.41569     -1.761028
   3.51272     -1.840552
   3.60975     -1.925561
   3.70677     -2.015410
   3.80380     -2.108792
   3.90083     -2.204282
   3.99786     -2.300360
   4.09488     -2.396872
   4.19191     -2.466491
   4.28894     -2.432389
   4.38597     -2.390019
   4.48299     -2.342811
   4.58002     -2.294347
   4.67705     -2.248863
   4.77408     -2.207016
   4.87110     -2.174231
   4.96813     -2.155418
   5.06516     -2.148960
   5.06516     -2.148960
   5.14438     -2.150903
   5.22360     -2.156321
   5.30282     -2.165202
   5.38205     -2.175537
   5.46127     -2.180877
   5.54049     -2.179408
   5.61971     -2.166862
   5.69894     -2.138399
   5.77816     -2.093950
   5.85738     -2.034631
   5.93660     -1.967380
   6.01583     -1.895537
   6.09505     -1.823643
   6.17427     -1.755699
   6.25350     -1.695096
   6.33272     -1.645741
   6.41194     -1.608205
   6.49116     -1.583705
   6.57039     -1.575987
 
# Band-Index    6
   6.57039     -0.954378
   6.49116     -1.087194
   6.41194     -1.424986
   6.33272     -1.645741
   6.25350     -1.695096
   6.17427     -1.755699
   6.09505     -1.823643
   6.01583     -1.895537
   5.93660     -1.967380
   5.85738     -2.034631
   5.77816     -2.093950
   5.69894     -2.138399
   5.61971     -2.166862
   5.54049     -2.179408
   5.46127     -2.180877
   5.38205     -2.175537
   5.30282     -2.165202
   5.22360     -2.156321
   5.14438     -2.150903
   5.06516     -2.148960
   5.06516     -2.148960
   4.96813     -2.148306
   4.87110     -2.145386
   4.77408     -2.138193
   4.67705     -2.119760
   4.58002     -2.079857
   4.48299     -2.009722
   4.38597     -1.902075
   4.28894     -1.752145
   4.19191     -1.558253
   4.09488     -1.313295
   3.99786     -0.999850
   3.90083     -0.592226
   3.80380     -0.063229
   3.70677      0.607737
   3.60975      1.421441
   3.51272      2.364571
   3.41569      3.418896
   3.31866      4.564713
   3.22164      4.381536
   3.22164      4.381536
   3.18930      4.387111
   3.15695      4.403812
   3.12461      4.431607
   3.09227      4.470413
   3.05993      4.520122
   3.02758      4.580603
   2.99524      4.651695
   2.96290      4.733218
   2.93056      4.824975
   2.89821      4.926747
   2.86587      5.038272
   2.83353      5.159383
   2.80119      5.289805
   2.76884      5.429278
   2.73650      5.577582
   2.70416      5.734463
   2.67182      5.899685
   2.63947      6.073018
   2.60713      6.254205
   2.60713      6.254205
   2.56139      5.888014
   2.51565      5.529923
   2.46991      5.180293
   2.42417      4.839509
   2.37844      4.507943
   2.33270      4.186086
   2.28696      3.874532
   2.24122      3.573994
   2.19548      3.285363
   2.14974      3.009768
   2.10400      2.748661
   2.05826      2.503944
   2.01252      2.278074
   1.96678      2.074222
   1.92104      1.896355
   1.87530      1.749408
   1.82957      1.638761
   1.78383      1.569690
   1.73809      1.546168
   1.73809      1.546168
   1.64661      1.324930
   1.55513      0.769447
   1.46365      0.063229
   1.37217     -0.665382
   1.28070     -1.333940
   1.18922     -1.725924
   1.09774     -1.766260
   1.00626     -1.809404
   0.91478     -1.854163
   0.82330     -1.899303
   0.73183     -1.944964
   0.64035     -1.987511
   0.54887     -2.026929
   0.45739     -2.062172
   0.36591     -2.092331
   0.27443     -2.116628
   0.18296     -2.134437
   0.09148     -2.145306
   0.00000     -2.148960
 
# Band-Index    7
   0.00000     22.650593
   0.09148     22.525354
   0.18296     22.197431
   0.27443     21.758043
   0.36591     21.275971
   0.45739     20.796840
   0.54887     20.135279
   0.64035     19.226454
   0.73183     18.359073
   0.82330     17.538651
   0.91478     16.770379
   1.00626     16.059643
   1.09774     14.681857
   1.18922     13.216764
   1.28070     11.804860
   1.37217     10.471072
   1.46365      9.250264
   1.55513      8.204097
   1.64661      7.448941
   1.73809      7.161762
   1.73809      7.161762
   1.78383      7.164787
   1.82957      7.173892
   1.87530      7.189163
   1.92104      7.210751
   1.96678      7.238861
   2.01252      7.273753
   2.05826      7.315736
   2.10400      7.365165
   2.14974      7.422433
   2.19548      7.487957
   2.24122      7.562163
   2.28696      7.645448
   2.33270      7.738112
   2.37844      7.840251
   2.42417      7.793945
   2.46991      7.398463
   2.51565      7.009779
   2.56139      6.628262
   2.60713      6.254271
   2.60713      6.254271
   2.63947      6.403533
   2.67182      6.482535
   2.70416      6.503008
   2.73650      6.482365
   2.76884      6.436033
   2.80119      6.375089
   2.83353      6.306862
   2.86587      6.236154
   2.89821      6.166164
   2.93056      6.099022
   2.96290      6.036269
   2.99524      5.979024
   3.02758      5.928104
   3.05993      5.884130
   3.09227      5.847577
   3.12461      5.818803
   3.15695      5.798071
   3.18930      5.785563
   3.22164      5.781382
   3.22164      5.781382
   3.31866      5.111795
   3.41569      5.889350
   3.51272      6.711721
   3.60975      7.577374
   3.70677      8.485391
   3.80380      9.435152
   3.90083     10.426170
   3.99786     11.458131
   4.09488     12.530579
   4.19191     13.642766
   4.28894     14.793513
   4.38597     15.980443
   4.48299     17.199045
   4.58002     18.440379
   4.67705     19.683491
   4.77408     20.878860
   4.87110     21.892762
   4.96813     22.489139
   5.06516     22.650593
   5.06516     22.650593
   5.14438     22.542068
   5.22360     22.085731
   5.30282     21.122534
   5.38205     19.865860
   5.46127     18.517827
   5.54049     17.149701
   5.61971     15.789473
   5.69894     14.450054
   5.77816     13.138949
   5.85738     11.861667
   5.93660     10.623160
   6.01583      9.428853
   6.09505      8.285606
   6.17427      7.203102
   6.25350      6.196564
   6.33272      5.291792
   6.41194      4.534938
   6.49116      4.005702
   6.57039      3.810012
 
# Band-Index    8
   6.57039     21.136720
   6.49116     21.156289
   6.41194     21.214390
   6.33272     21.309645
   6.25350     21.439367
   6.17427     21.599412
   6.09505     21.784676
   6.01583     21.988526
   5.93660     22.202939
   5.85738     22.418730
   5.77816     22.625711
   5.69894     22.815532
   5.61971     22.981274
   5.54049     23.124845
   5.46127     23.245527
   5.38205     23.369145
   5.30282     23.560065
   5.22360     23.990471
   5.14438     24.770624
   5.06516     25.287747
   5.06516     25.287747
   4.96813     24.643513
   4.87110     23.392587
   4.77408     22.011471
   4.67705     20.619621
   4.58002     19.256255
   4.48299     17.939448
   4.38597     16.680286
   4.28894     15.486543
   4.19191     14.364788
   4.09488     13.320863
   3.99786     12.360106
   3.90083     11.487129
   3.80380     10.705345
   3.70677     10.016567
   3.60975      9.420442
   3.51272      8.914221
   3.41569      8.493176
   3.31866      8.151297
   3.22164      7.885355
   3.22164      7.885355
   3.18930      7.887067
   3.15695      7.892204
   3.12461      7.900799
   3.09227      7.912873
   3.05993      7.928466
   3.02758      7.947620
   2.99524      7.970384
   2.96290      7.996804
   2.93056      8.026908
   2.89821      8.060685
   2.86587      8.098063
   2.83353      8.138838
   2.80119      8.182562
   2.76884      8.228289
   2.73650      8.274089
   2.70416      8.315889
   2.67182      8.345783
   2.63947      8.354514
   2.60713      8.350556
   2.60713      8.350556
   2.56139      8.299943
   2.51565      8.191524
   2.46991      8.070182
   2.42417      7.951458
   2.37844      8.195801
   2.33270      8.603510
   2.28696      9.016420
   2.24122      9.433664
   2.19548      9.854126
   2.14974     10.276272
   2.10400     10.697933
   2.05826     11.116009
   2.01252     11.525954
   1.96678     11.920957
   1.92104     12.290831
   1.87530     12.620313
   1.82957     12.887674
   1.78383     13.065462
   1.73809     13.128362
   1.73809     13.128362
   1.64661     13.178317
   1.55513     13.326595
   1.46365     13.570788
   1.37217     13.906928
   1.28070     14.329800
   1.18922     14.833436
   1.09774     15.412057
   1.00626     16.059665
   0.91478     16.770401
   0.82330     17.538674
   0.73183     18.359095
   0.64035     19.226476
   0.54887     20.135302
   0.45739     21.079318
   0.36591     22.050016
   0.27443     23.034839
   0.18296     24.003201
   0.09148     24.864912
   0.00000     25.287747
 
# Band-Index    9
   0.00000     25.287791
   0.09148     24.864940
   0.18296     24.003227
   0.27443     23.034863
   0.36591     22.050039
   0.45739     21.079341
   0.54887     20.338356
   0.64035     19.912273
   0.73183     19.523598
   0.82330     19.071169
   0.91478     17.659356
   1.00626     16.174922
   1.09774     15.412079
   1.18922     14.833459
   1.28070     14.329822
   1.37217     13.906951
   1.46365     13.570810
   1.55513     13.326618
   1.64661     13.178340
   1.73809     13.128385
   1.73809     13.128385
   1.78383     13.090008
   1.82957     12.978116
   1.87530     12.802816
   1.92104     12.577503
   1.96678     12.315892
   2.01252     12.030002
   2.05826     11.729969
   2.10400     11.423753
   2.14974     11.117467
   2.19548     10.815769
   2.24122     10.522224
   2.28696     10.239552
   2.33270      9.969904
   2.37844      9.715139
   2.42417      9.477150
   2.46991      9.258674
   2.51565      9.065531
   2.56139      8.913806
   2.60713      8.848721
   2.60713      8.848721
   2.63947      8.890496
   2.67182      9.034843
   2.70416      9.277984
   2.73650      9.592727
   2.76884      9.955174
   2.80119     10.349625
   2.83353     10.765860
   2.86587     11.197309
   2.89821     11.639293
   2.93056     12.087743
   2.96290     12.538992
   2.99524     12.988934
   3.02758     13.432386
   3.05993     13.862132
   3.09227     14.267474
   3.12461     14.632121
   3.15695     14.931760
   3.18930     15.133976
   3.22164     15.206235
   3.22164     15.206235
   3.31866     15.868018
   3.41569     16.604242
   3.51272     17.409492
   3.60975     18.279144
   3.70677     19.208908
   3.80380     20.195435
   3.90083     21.235737
   3.99786     22.327152
   4.09488     23.467431
   4.19191     24.290723
   4.28894     25.120838
   4.38597     25.830759
   4.48299     25.302724
   4.58002     24.865213
   4.67705     24.534904
   4.77408     24.353419
   4.87110     24.425486
   4.96813     24.881287
   5.06516     25.287791
   5.06516     25.287791
   5.14438     25.192499
   5.22360     24.953259
   5.30282     24.646696
   5.38205     24.322824
   5.46127     24.006041
   5.54049     23.707697
   5.61971     23.433121
   5.69894     23.185824
   5.77816     22.966462
   5.85738     22.775385
   5.93660     22.611851
   6.01583     22.475294
   6.09505     22.364489
   6.17427     22.277765
   6.25350     22.212953
   6.33272     22.166759
   6.41194     22.137308
   6.49116     22.121717
   6.57039     22.116599
 
# Band-Index   10
   6.57039     22.116599
   6.49116     22.121717
   6.41194     22.137308
   6.33272     22.166759
   6.25350     22.212953
   6.17427     22.277765
   6.09505     22.364489
   6.01583     22.475294
   5.93660     22.611851
   5.85738     22.775385
   5.77816     22.966462
   5.69894     23.185824
   5.61971     23.433121
   5.54049     23.707697
   5.46127     24.006041
   5.38205     24.322824
   5.30282     24.646696
   5.22360     24.953259
   5.14438     25.192499
   5.06516     25.287791
   5.06516     25.287791
   4.96813     25.341737
   4.87110     25.502867
   4.77408     25.768351
   4.67705     26.135837
   4.58002     26.599059
   4.48299     26.824459
   4.38597     25.976551
   4.28894     25.881104
   4.19191     24.653960
   4.09488     23.506802
   3.99786     22.783817
   3.90083     22.126320
   3.80380     21.538334
   3.70677     21.020381
   3.60975     20.569305
   3.51272     20.181199
   3.41569     19.850806
   3.31866     19.570935
   3.22164     19.333727
   3.22164     19.333727
   3.18930     19.411992
   3.15695     19.632150
   3.12461     19.961744
   3.09227     20.368264
   3.05993     20.827391
   3.02758     21.322792
   2.99524     21.843735
   2.96290     22.382957
   2.93056     22.935486
   2.89821     23.497037
   2.86587     24.064061
   2.83353     24.634145
   2.80119     25.203473
   2.76884     25.767651
   2.73650     26.323525
   2.70416     26.864542
   2.67182     27.382643
   2.63947     27.865781
   2.60713     28.292779
   2.60713     28.292779
   2.56139     27.525725
   2.51565     26.773212
   2.46991     26.035528
   2.42417     25.313254
   2.37844     24.606546
   2.33270     23.915076
   2.28696     23.239984
   2.24122     22.582027
   2.19548     21.942221
   2.14974     21.322001
   2.10400     20.723391
   2.05826     20.149433
   2.01252     19.604589
   1.96678     19.095564
   1.92104     18.632492
   1.87530     18.230566
   1.82957     17.911500
   1.78383     17.702454
   1.73809     17.629112
   1.73809     17.629112
   1.64661     17.643378
   1.55513     17.686273
   1.46365     17.758325
   1.37217     17.860329
   1.28070     17.993380
   1.18922     18.158788
   1.09774     18.358083
   1.00626     18.592899
   0.91478     18.864839
   0.82330     19.175285
   0.73183     20.311661
   0.64035     21.315232
   0.54887     22.132522
   0.45739     22.855793
   0.36591     23.534513
   0.27443     24.173338
   0.18296     24.732126
   0.09148     25.136774
   0.00000     25.287791
 
# Band-Index   11
   0.00000     27.781451
   0.09148     27.978501
   0.18296     28.521281
   0.27443     29.317712
   0.36591     29.402278
   0.45739     27.725862
   0.54887     26.092301
   0.64035     24.607529
   0.73183     23.388734
   0.82330     22.499507
   0.91478     21.880115
   1.00626     21.435965
   1.09774     21.105545
   1.18922     20.855350
   1.28070     20.666239
   1.37217     20.525125
   1.46365     20.423626
   1.55513     20.355406
   1.64661     20.316202
   1.73809     20.303410
   1.73809     20.303410
   1.78383     20.360454
   1.82957     20.527765
   1.87530     20.795183
   1.92104     21.149203
   1.96678     21.575925
   2.01252     22.062575
   2.05826     22.598567
   2.10400     23.175130
   2.14974     23.785015
   2.19548     24.421976
   2.24122     25.080310
   2.28696     25.754155
   2.33270     26.436672
   2.37844     27.118697
   2.42417     27.786320
   2.46991     28.415534
   2.51565     28.965455
   2.56139     29.074213
   2.60713     28.292820
   2.60713     28.292820
   2.63947     28.683429
   2.67182     29.081027
   2.70416     29.485581
   2.73650     29.463868
   2.76884     29.422576
   2.80119     29.375532
   2.83353     29.325323
   2.86587     29.274531
   2.89821     29.225487
   2.93056     29.178273
   2.96290     29.134157
   2.99524     29.094368
   3.02758     29.059147
   3.05993     29.028861
   3.09227     29.003777
   3.12461     28.984092
   3.15695     28.969944
   3.18930     28.961479
   3.22164     28.958630
   3.22164     28.958630
   3.31866     31.030254
   3.41569     33.156902
   3.51272     33.602133
   3.60975     32.646123
   3.70677     31.566498
   3.80380     30.548980
   3.90083     29.594837
   3.99786     28.705208
   4.09488     27.878250
   4.19191     27.123123
   4.28894     26.439306
   4.38597     27.101939
   4.48299     27.136363
   4.58002     27.613193
   4.67705     28.089698
   4.77408     27.953778
   4.87110     27.857853
   4.96813     27.800521
   5.06516     27.781451
   5.06516     27.781451
   5.14438     27.913167
   5.22360     28.259832
   5.30282     28.737901
   5.38205     29.279302
   5.46127     29.657570
   5.54049     29.628729
   5.61971     29.607949
   5.69894     29.482457
   5.77816     28.858437
   5.85738     28.233295
   5.93660     27.638303
   6.01583     27.089762
   6.09505     26.596533
   6.17427     26.165246
   6.25350     25.801686
   6.33272     25.511224
   6.41194     25.299166
   6.49116     25.170141
   6.57039     25.126626
 
# Band-Index   12
   6.57039     25.126626
   6.49116     25.170141
   6.41194     25.299166
   6.33272     25.511224
   6.25350     25.801686
   6.17427     26.165246
   6.09505     26.596533
   6.01583     27.089762
   5.93660     27.638303
   5.85738     28.233295
   5.77816     28.858437
   5.69894     29.482457
   5.61971     30.003145
   5.54049     30.151656
   5.46127     29.811301
   5.38205     29.279302
   5.30282     28.737901
   5.22360     28.259832
   5.14438     27.913167
   5.06516     27.781484
   5.06516     27.781484
   4.96813     28.201396
   4.87110     28.672626
   4.77408     28.670800
   4.67705     28.264954
   4.58002     28.267257
   4.48299     28.487942
   4.38597     27.918225
   4.28894     28.592090
   4.19191     29.395300
   4.09488     29.848451
   3.99786     30.321371
   3.90083     30.852155
   3.80380     31.443642
   3.70677     32.098042
   3.60975     32.817207
   3.51272     33.787000
   3.41569     34.455608
   3.31866     35.373083
   3.22164     36.355021
   3.22164     36.355021
   3.18930     36.166167
   3.15695     35.770987
   3.12461     35.317666
   3.09227     34.847864
   3.05993     34.374459
   3.02758     33.902432
   2.99524     33.434104
   2.96290     32.970699
   2.93056     32.512997
   2.89821     32.061280
   2.86587     31.613309
   2.83353     31.174563
   2.80119     30.742504
   2.76884     30.315465
   2.73650     29.897072
   2.70416     29.495495
   2.67182     29.513778
   2.63947     29.517265
   2.60713     29.513332
   2.60713     29.513332
   2.56139     29.363380
   2.51565     29.869685
   2.46991     30.678877
   2.42417     31.504360
   2.37844     32.339987
   2.33270     33.187208
   2.28696     34.045322
   2.24122     34.912795
   2.19548     35.787449
   2.14974     36.666018
   2.10400     37.543475
   2.05826     38.411852
   2.01252     39.258264
   1.96678     40.061602
   1.92104     40.781946
   1.87530     41.386291
   1.82957     41.825363
   1.78383     42.078942
   1.73809     42.157062
   1.73809     42.157062
   1.64661     42.117099
   1.55513     41.982795
   1.46365     41.778573
   1.37217     41.540036
   1.28070     41.265158
   1.18922     40.839301
   1.09774     39.736152
   1.00626     38.663040
   0.91478     37.612651
   0.82330     36.575135
   0.73183     35.382304
   0.64035     33.964692
   0.54887     32.637513
   0.45739     31.409504
   0.36591     30.293056
   0.27443     30.173279
   0.18296     29.129111
   0.09148     28.220507
   0.00000     27.781484
 
# Band-Index   13
   0.00000     27.781484
   0.09148     28.220531
   0.18296     29.129137
   0.27443     30.173309
   0.36591     31.256460
   0.45739     32.347644
   0.54887     33.428045
   0.64035     34.490844
   0.73183     35.536669
   0.82330     36.575184
   0.91478     37.612702
   1.00626     38.663093
   1.09774     39.736206
   1.18922     40.839355
   1.28070     41.979837
   1.37217     43.146952
   1.46365     44.360702
   1.55513     45.613443
   1.64661     46.223931
   1.73809     46.299705
   1.73809     46.299705
   1.78383     46.047230
   1.82957     45.591876
   1.87530     45.204127
   1.92104     44.950619
   1.96678     44.817458
   2.01252     43.996903
   2.05826     43.073557
   2.10400     42.146814
   2.14974     41.222482
   2.19548     40.305231
   2.24122     39.399347
   2.28696     38.509463
   2.33270     37.641401
   2.37844     36.803561
   2.42417     36.008841
   2.46991     35.280874
   2.51565     34.661061
   2.56139     34.221301
   2.60713     34.057410
   2.60713     34.057410
   2.63947     34.103587
   2.67182     34.233866
   2.70416     34.434645
   2.73650     34.692643
   2.76884     34.996368
   2.80119     35.337219
   2.83353     35.706630
   2.86587     36.098817
   2.89821     36.512109
   2.93056     36.940633
   2.96290     37.382255
   2.99524     37.834845
   3.02758     38.295832
   3.05993     38.762413
   3.09227     39.177061
   3.12461     38.663567
   3.15695     38.178922
   3.18930     37.765864
   3.22164     37.570712
   3.22164     37.570712
   3.31866     36.250279
   3.41569     34.989515
   3.51272     35.290710
   3.60975     35.601514
   3.70677     34.431301
   3.80380     33.309322
   3.90083     32.239862
   3.99786     31.226589
   4.09488     30.276595
   4.19191     29.431602
   4.28894     29.067663
   4.38597     28.753966
   4.48299     28.557936
   4.58002     29.900057
   4.67705     31.299027
   4.77408     31.170069
   4.87110     29.715389
   4.96813     28.429102
   5.06516     27.781484
   5.06516     27.781484
   5.14438     28.286079
   5.22360     29.058146
   5.30282     29.509004
   5.38205     29.650261
   5.46127     29.811301
   5.54049     30.151656
   5.61971     30.003145
   5.69894     29.618423
   5.77816     29.662804
   5.85738     29.739478
   5.93660     29.835461
   6.01583     29.943552
   6.09505     30.054382
   6.17427     30.159892
   6.25350     30.253657
   6.33272     30.330905
   6.41194     30.388346
   6.49116     30.426315
   6.57039     30.438061
 
# Band-Index   14
   6.57039     43.227093
   6.49116     42.834188
   6.41194     41.947709
   6.33272     40.897179
   6.25350     39.809050
   6.17427     38.716809
   6.09505     37.646862
   6.01583     36.609951
   5.93660     35.613975
   5.85738     34.667498
   5.77816     33.784383
   5.69894     32.997677
   5.61971     32.407015
   5.54049     32.281760
   5.46127     32.734884
   5.38205     33.470013
   5.30282     33.018173
   5.22360     32.107330
   5.14438     31.662926
   5.06516     31.548301
   5.06516     31.548301
   4.96813     31.716076
   4.87110     32.283191
   4.77408     32.733390
   4.67705     32.661836
   4.58002     33.816354
   4.48299     33.940569
   4.38597     34.126181
   4.28894     34.387273
   4.19191     34.721207
   4.09488     35.123208
   3.99786     35.590338
   3.90083     36.117225
   3.80380     36.690310
   3.70677     37.243803
   3.60975     37.112230
   3.51272     36.813780
   3.41569     38.067714
   3.31866     39.356297
   3.22164     40.675689
   3.22164     40.675689
   3.18930     40.506827
   3.15695     40.134305
   3.12461     39.693320
   3.09227     39.230610
   3.05993     39.706334
   3.02758     40.246130
   2.99524     40.793791
   2.96290     41.347653
   2.93056     41.906481
   2.89821     42.469035
   2.86587     43.026505
   2.83353     43.592422
   2.80119     44.157625
   2.76884     44.717369
   2.73650     45.272131
   2.70416     45.813156
   2.67182     46.326788
   2.63947     46.777658
   2.60713     47.062558
   2.60713     47.062558
   2.56139     46.783063
   2.51565     46.514638
   2.46991     46.259211
   2.42417     46.018417
   2.37844     45.793136
   2.33270     45.584678
   2.28696     45.394343
   2.24122     45.223586
   2.19548     45.074307
   2.14974     44.949194
   2.10400     44.852290
   2.05826     44.789978
   2.01252     44.772677
   1.96678     44.908559
   1.92104     45.791419
   1.87530     46.629001
   1.82957     47.372230
   1.78383     47.925095
   1.73809     48.133314
   1.73809     48.133314
   1.64661     46.903555
   1.55513     45.613497
   1.46365     44.360757
   1.37217     43.147006
   1.28070     41.979892
   1.18922     40.974688
   1.09774     40.686387
   1.00626     40.128925
   0.91478     38.469167
   0.82330     36.886311
   0.73183     35.536715
   0.64035     34.490887
   0.54887     33.428084
   0.45739     32.347680
   0.36591     31.256493
   0.27443     30.949120
   0.18296     31.771318
   0.09148     31.671795
   0.00000     31.548301
 
# Band-Index   15
   0.00000     36.327714
   0.09148     35.448727
   0.18296     34.235857
   0.27443     34.089219
   0.36591     34.825774
   0.45739     35.834664
   0.54887     36.944455
   0.64035     38.088807
   0.73183     39.226279
   0.82330     39.910400
   0.91478     40.149239
   1.00626     40.409213
   1.09774     41.862404
   1.18922     43.666193
   1.28070     44.614319
   1.37217     45.186923
   1.46365     45.654187
   1.55513     46.002648
   1.64661     46.903610
   1.73809     48.133373
   1.73809     48.133373
   1.78383     48.144020
   1.82957     48.180379
   1.87530     48.227385
   1.92104     48.291914
   1.96678     48.331227
   2.01252     48.328107
   2.05826     48.324770
   2.10400     48.321271
   2.14974     48.317674
   2.19548     48.314046
   2.24122     48.310458
   2.28696     48.306983
   2.33270     48.303693
   2.37844     48.300659
   2.42417     48.214861
   2.46991     47.934440
   2.51565     47.643214
   2.56139     47.350603
   2.60713     47.062629
   2.60713     47.062629
   2.63947     47.194748
   2.67182     47.303129
   2.70416     47.380207
   2.73650     47.414941
   2.76884     47.391576
   2.80119     47.296102
   2.83353     47.102097
   2.86587     46.812778
   2.89821     46.446509
   2.93056     46.021190
   2.96290     45.558730
   2.99524     45.074191
   3.02758     44.577286
   3.05993     44.075534
   3.09227     43.575854
   3.12461     43.087219
   3.15695     42.627036
   3.18930     42.242941
   3.22164     42.070108
   3.22164     42.070108
   3.31866     41.047936
   3.41569     40.110770
   3.51272     39.294003
   3.60975     38.919275
   3.70677     40.341064
   3.80380     42.492458
   3.90083     41.924139
   3.99786     40.833436
   4.09488     39.778462
   4.19191     38.748200
   4.28894     37.715933
   4.38597     36.635073
   4.48299     35.446268
   4.58002     34.112251
   4.67705     33.648677
   4.77408     33.113144
   4.87110     34.179031
   4.96813     35.549778
   5.06516     36.327714
   5.06516     36.327714
   5.14438     35.948896
   5.22360     35.170491
   5.30282     34.308477
   5.38205     33.470013
   5.46127     32.734884
   5.54049     32.281760
   5.61971     32.407015
   5.69894     32.997677
   5.77816     33.784383
   5.85738     34.667498
   5.93660     35.613975
   6.01583     36.609951
   6.09505     37.646862
   6.17427     38.716809
   6.25350     39.809050
   6.33272     40.897179
   6.41194     41.947709
   6.49116     42.834188
   6.57039     43.227093
 
# Band-Index   16
   6.57039     45.381810
   6.49116     45.181786
   6.41194     44.649453
   6.33272     43.922429
   6.25350     43.108267
   6.17427     42.273234
   6.09505     41.454525
   6.01583     40.672302
   5.93660     39.936177
   5.85738     39.248020
   5.77816     38.599488
   5.69894     37.979422
   5.61971     37.341680
   5.54049     36.580843
   5.46127     35.534999
   5.38205     34.256042
   5.30282     34.308477
   5.22360     35.170491
   5.14438     35.948896
   5.06516     36.327775
   5.06516     36.327775
   4.96813     36.083757
   4.87110     35.658872
   4.77408     35.512417
   4.67705     36.115906
   4.58002     37.365254
   4.48299     38.765058
   4.38597     40.049091
   4.28894     41.102496
   4.19191     41.935846
   4.09488     42.615425
   3.99786     43.211924
   3.90083     43.670081
   3.80380     43.054881
   3.70677     44.226385
   3.60975     45.430013
   3.51272     46.558214
   3.41569     47.351098
   3.31866     48.207744
   3.22164     49.136324
   3.22164     49.136324
   3.18930     49.135569
   3.15695     49.130758
   3.12461     49.127355
   3.09227     49.123219
   3.05993     49.119194
   3.02758     49.116760
   2.99524     49.118455
   2.96290     49.128595
   2.93056     49.156515
   2.89821     49.210080
   2.86587     49.294999
   2.83353     49.456466
   2.80119     49.694078
   2.76884     49.644180
   2.73650     49.339611
   2.70416     49.016014
   2.67182     48.695507
   2.63947     48.417604
   2.60713     48.285685
   2.60713     48.285685
   2.56139     48.286000
   2.51565     48.286935
   2.46991     48.288466
   2.42417     48.291265
   2.37844     48.470183
   2.33270     48.677036
   2.28696     48.812498
   2.24122     48.864097
   2.19548     48.841913
   2.14974     48.770498
   2.10400     48.673733
   2.05826     48.568613
   2.01252     48.465915
   1.96678     48.372299
   1.92104     48.334077
   1.87530     48.336610
   1.82957     48.338785
   1.78383     48.333389
   1.73809     48.330969
   1.73809     48.330969
   1.64661     49.603781
   1.55513     50.992875
   1.46365     49.438849
   1.37217     47.463101
   1.28070     45.536015
   1.18922     43.942667
   1.09774     43.175747
   1.00626     42.313698
   0.91478     41.360347
   0.82330     40.325719
   0.73183     39.694781
   0.64035     39.504119
   0.54887     38.697161
   0.45739     37.957333
   0.36591     37.359876
   0.27443     36.903397
   0.18296     36.581915
   0.09148     36.391037
   0.00000     36.327775
 
# Band-Index   17
   0.00000     36.327775
   0.09148     36.391077
   0.18296     36.581955
   0.27443     36.903435
   0.36591     37.359912
   0.45739     37.957367
   0.54887     38.697191
   0.64035     39.580486
   0.73183     40.601347
   0.82330     41.749137
   0.91478     43.006868
   1.00626     44.359613
   1.09774     45.792499
   1.18922     47.291450
   1.28070     48.841655
   1.37217     50.421308
   1.46365     51.935690
   1.55513     50.992929
   1.64661     49.603836
   1.73809     48.331019
   1.73809     48.331019
   1.78383     48.696647
   1.82957     49.485349
   1.87530     50.434226
   1.92104     51.462861
   1.96678     52.011186
   2.01252     51.995874
   2.05826     51.950718
   2.10400     51.888747
   2.14974     51.818505
   2.19548     51.537002
   2.24122     51.310343
   2.28696     51.192221
   2.33270     51.192998
   2.37844     51.300323
   2.42417     51.445980
   2.46991     51.405795
   2.51565     51.379883
   2.56139     51.364194
   2.60713     51.358941
   2.60713     51.358941
   2.63947     51.278353
   2.67182     51.041908
   2.70416     50.710535
   2.73650     50.347474
   2.76884     49.996269
   2.80119     49.912677
   2.83353     50.124618
   2.86587     50.273220
   2.89821     50.375190
   2.93056     50.418222
   2.96290     50.430026
   2.99524     50.423860
   3.02758     50.408204
   3.05993     50.388840
   3.09227     50.369499
   3.12461     50.352582
   3.15695     50.339611
   3.18930     50.332951
   3.22164     50.330189
   3.22164     50.330189
   3.31866     49.133204
   3.41569     47.905201
   3.51272     46.657903
   3.60975     45.838692
   3.70677     45.177282
   3.80380     44.618809
   3.90083     45.177880
   3.99786     47.350220
   4.09488     46.324492
   4.19191     44.341179
   4.28894     42.493478
   4.38597     40.838690
   4.48299     39.449478
   4.58002     38.363069
   4.67705     37.562619
   4.77408     36.996137
   4.87110     36.617478
   4.96813     36.399191
   5.06516     36.327775
   5.06516     36.327775
   5.14438     36.380465
   5.22360     36.538944
   5.30282     36.807743
   5.38205     37.215644
   5.46127     37.864230
   5.54049     38.920684
   5.61971     40.394402
   5.69894     42.112415
   5.77816     43.959870
   5.85738     45.891380
   5.93660     47.887414
   6.01583     49.938414
   6.09505     52.038486
   6.17427     52.449300
   6.25350     51.094374
   6.33272     49.766735
   6.41194     48.544043
   6.49116     47.568806
   6.57039     47.139642
 
# Band-Index   18
   6.57039     47.139642
   6.49116     47.568806
   6.41194     48.544043
   6.33272     49.766735
   6.25350     51.094374
   6.17427     52.449300
   6.09505     53.527915
   6.01583     52.891029
   5.93660     51.564315
   5.85738     50.186804
   5.77816     48.815774
   5.69894     47.469335
   5.61971     46.151522
   5.54049     44.870529
   5.46127     43.621655
   5.38205     42.415432
   5.30282     41.272496
   5.22360     40.205664
   5.14438     39.304496
   5.06516     38.885267
   5.06516     38.885267
   4.96813     39.213291
   4.87110     39.934304
   4.77408     40.768805
   4.67705     41.634320
   4.58002     42.547528
   4.48299     43.568668
   4.38597     44.802545
   4.28894     46.315309
   4.19191     48.023667
   4.09488     49.058279
   3.99786     48.405582
   3.90083     50.545862
   3.80380     52.706372
   3.70677     54.814352
   3.60975     56.689734
   3.51272     57.349484
   3.41569     56.636517
   3.31866     55.977406
   3.22164     55.370698
   3.22164     55.370698
   3.18930     55.350388
   3.15695     55.290476
   3.12461     55.194018
   3.09227     55.065337
   3.05993     54.909691
   3.02758     54.563465
   2.99524     54.121183
   2.96290     53.704242
   2.93056     53.323660
   2.89821     52.990664
   2.86587     52.711737
   2.83353     52.521502
   2.80119     52.415840
   2.76884     52.386746
   2.73650     52.422218
   2.70416     52.506364
   2.67182     52.624513
   2.63947     52.610973
   2.60713     52.730594
   2.60713     52.730594
   2.56139     52.368509
   2.51565     52.036139
   2.46991     51.739748
   2.42417     51.489105
   2.37844     51.491404
   2.33270     51.545353
   2.28696     51.606768
   2.24122     51.674201
   2.19548     51.745692
   2.14974     51.847120
   2.10400     52.215925
   2.05826     52.624964
   2.01252     53.061039
   1.96678     52.543581
   1.92104     51.973953
   1.87530     51.867953
   1.82957     51.680132
   1.78383     51.449107
   1.73809     51.330167
   1.73809     51.330167
   1.64661     51.439542
   1.55513     51.428250
   1.46365     51.935708
   1.37217     50.421326
   1.28070     48.841673
   1.18922     47.291469
   1.09774     45.792518
   1.00626     44.359632
   0.91478     43.006889
   0.82330     41.749159
   0.73183     40.601371
   0.64035     39.580513
   0.54887     39.338987
   0.45739     39.199629
   0.36591     39.086011
   0.27443     38.997965
   0.18296     38.935280
   0.09148     38.897758
   0.00000     38.885267
 
# Band-Index   19
   0.00000     38.885267
   0.09148     39.813919
   0.18296     41.368271
   0.27443     42.953609
   0.36591     44.432107
   0.45739     45.761160
   0.54887     46.934723
   0.64035     47.986584
   0.73183     48.963431
   0.82330     49.918947
   0.91478     50.856563
   1.00626     51.784973
   1.09774     52.674144
   1.18922     53.464707
   1.28070     53.821293
   1.37217     52.943786
   1.46365     52.265606
   1.55513     51.756538
   1.64661     53.306757
   1.73809     54.350488
   1.73809     54.350488
   1.78383     54.345899
   1.82957     54.325163
   1.87530     54.277401
   1.92104     53.970476
   1.96678     53.513373
   2.01252     53.657340
   2.05826     53.956368
   2.10400     53.860814
   2.14974     53.765523
   2.19548     53.673096
   2.24122     53.585750
   2.28696     53.505337
   2.33270     53.433374
   2.37844     53.371101
   2.42417     53.314748
   2.46991     53.271642
   2.51565     53.241174
   2.56139     53.118244
   2.60713     52.730605
   2.60713     52.730605
   2.63947     52.748137
   2.67182     52.630964
   2.70416     52.744078
   2.73650     52.904018
   2.76884     53.087847
   2.80119     53.285691
   2.83353     53.491911
   2.86587     53.699564
   2.89821     53.914955
   2.93056     54.129818
   2.96290     54.335221
   2.99524     54.539479
   3.02758     54.732614
   3.05993     55.024050
   3.09227     55.497602
   3.12461     55.979505
   3.15695     56.464933
   3.18930     56.951574
   3.22164     57.393352
   3.22164     57.393352
   3.31866     58.068412
   3.41569     58.343140
   3.51272     57.957847
   3.60975     58.117523
   3.70677     58.903069
   3.80380     57.401461
   3.90083     55.038332
   3.99786     52.824447
   4.09488     51.324818
   4.19191     52.719975
   4.28894     52.212381
   4.38597     50.256896
   4.48299     48.338968
   4.58002     46.466009
   4.67705     44.644627
   4.77408     42.893296
   4.87110     41.225453
   4.96813     39.711159
   5.06516     38.885267
   5.06516     38.885267
   5.14438     39.304496
   5.22360     40.205664
   5.30282     41.272496
   5.38205     42.415432
   5.46127     43.621655
   5.54049     44.870529
   5.61971     46.151522
   5.69894     47.469335
   5.77816     48.815774
   5.85738     50.186804
   5.93660     51.564315
   6.01583     52.891029
   6.09505     53.527915
   6.17427     54.182659
   6.25350     55.861528
   6.33272     54.759064
   6.41194     53.811887
   6.49116     53.144081
   6.57039     52.896506
 
# Band-Index   20
   6.57039     61.498557
   6.49116     61.119210
   6.41194     60.149184
   6.33272     58.575764
   6.25350     56.368482
   6.17427     56.176000
   6.09505     55.117652
   6.01583     55.821939
   5.93660     57.266621
   5.85738     58.608115
   5.77816     57.970697
   5.69894     57.183043
   5.61971     56.349892
   5.54049     55.540291
   5.46127     54.792856
   5.38205     54.137659
   5.30282     53.609231
   5.22360     53.217708
   5.14438     52.976518
   5.06516     52.895200
   5.06516     52.895200
   4.96813     53.017362
   4.87110     53.381426
   4.77408     53.976039
   4.67705     54.775298
   4.58002     55.718584
   4.48299     56.580726
   4.38597     56.524485
   4.28894     54.875286
   4.19191     54.193185
   4.09488     56.174124
   3.99786     58.087571
   3.90083     59.573606
   3.80380     59.608590
   3.70677     59.836953
   3.60975     62.290394
   3.51272     63.294014
   3.41569     61.628984
   3.31866     59.465426
   3.22164     57.452253
   3.22164     57.452253
   3.18930     57.865425
   3.15695     58.237851
   3.12461     58.508499
   3.09227     58.604617
   3.05993     58.509337
   3.02758     58.271090
   2.99524     57.947936
   2.96290     57.577173
   2.93056     57.206559
   2.89821     56.790550
   2.86587     56.361670
   2.83353     55.931262
   2.80119     55.498591
   2.76884     55.051655
   2.73650     54.621150
   2.70416     54.196412
   2.67182     53.784061
   2.63947     53.408659
   2.60713     53.216579
   2.60713     53.216579
   2.56139     53.222746
   2.51565     53.528495
   2.46991     53.959114
   2.42417     54.422755
   2.37844     54.898674
   2.33270     55.379973
   2.28696     55.873983
   2.24122     56.375848
   2.19548     56.247510
   2.14974     56.108858
   2.10400     55.946370
   2.05826     54.796531
   2.01252     54.049204
   1.96678     54.136011
   1.92104     54.213258
   1.87530     54.415832
   1.82957     54.820032
   1.78383     54.665789
   1.73809     54.566656
   1.73809     54.566656
   1.64661     54.601458
   1.55513     53.506199
   1.46365     52.489539
   1.37217     53.899481
   1.28070     54.081945
   1.18922     54.768805
   1.09774     55.830248
   1.00626     56.991814
   0.91478     58.243554
   0.82330     59.576801
   0.73183     60.807398
   0.64035     59.005862
   0.54887     57.360100
   0.45739     55.940118
   0.36591     54.787874
   0.27443     53.927068
   0.18296     53.340130
   0.09148     53.004659
   0.00000     52.895200
 
# Band-Index   21
   0.00000     71.435720
   0.09148     71.018052
   0.18296     69.959196
   0.27443     68.571032
   0.36591     67.047399
   0.45739     65.484386
   0.54887     63.930456
   0.64035     62.412332
   0.73183     60.946503
   0.82330     62.665485
   0.91478     61.495778
   1.00626     59.950275
   1.09774     58.411094
   1.18922     56.885982
   1.28070     55.387679
   1.37217     53.899538
   1.46365     52.489598
   1.55513     53.506223
   1.64661     54.732575
   1.73809     55.219199
   1.73809     55.219199
   1.78383     55.104447
   1.82957     54.937526
   1.87530     55.233272
   1.92104     55.400950
   1.96678     55.539240
   2.01252     55.678557
   2.05826     55.821497
   2.10400     55.965896
   2.14974     56.976556
   2.19548     56.865008
   2.24122     56.379176
   2.28696     56.501415
   2.33270     56.612040
   2.37844     56.709118
   2.42417     56.782148
   2.46991     56.824151
   2.51565     56.870499
   2.56139     56.898626
   2.60713     56.908053
   2.60713     56.908053
   2.63947     56.936533
   2.67182     57.017191
   2.70416     57.143090
   2.73650     57.307908
   2.76884     57.506026
   2.80119     57.748973
   2.83353     57.998687
   2.86587     58.266983
   2.89821     58.569651
   2.93056     58.867435
   2.96290     59.171777
   2.99524     59.483457
   3.02758     59.796355
   3.05993     60.105682
   3.09227     60.405057
   3.12461     60.684840
   3.15695     60.928478
   3.18930     61.112467
   3.22164     61.180803
   3.22164     61.180803
   3.31866     62.596464
   3.41569     62.980524
   3.51272     63.877809
   3.60975     63.670691
   3.70677     64.083478
   3.80380     62.729180
   3.90083     61.855796
   3.99786     62.355689
   4.09488     63.294255
   4.19191     62.450688
   4.28894     61.104751
   4.38597     60.428836
   4.48299     61.466042
   4.58002     63.520792
   4.67705     65.709778
   4.77408     67.824952
   4.87110     69.652624
   4.96813     70.952458
   5.06516     71.435720
   5.06516     71.435720
   5.14438     71.193562
   5.22360     70.501306
   5.30282     69.450173
   5.38205     68.141072
   5.46127     66.697603
   5.54049     65.154456
   5.61971     63.560406
   5.69894     61.958134
   5.77816     60.358947
   5.85738     58.812467
   5.93660     57.266621
   6.01583     55.821939
   6.09505     55.117652
   6.17427     56.176000
   6.25350     57.548661
   6.33272     58.904599
   6.41194     60.149184
   6.49116     61.119210
   6.57039     61.498557
 
# Band-Index   22
   6.57039     64.243016
   6.49116     62.933465
   6.41194     60.790445
   6.33272     58.904599
   6.25350     57.548661
   6.17427     56.979202
   6.09505     57.983905
   6.01583     58.689492
   5.93660     58.902591
   5.85738     58.812467
   5.77816     60.358947
   5.69894     61.958134
   5.61971     63.560406
   5.54049     65.154456
   5.46127     66.697603
   5.38205     68.141072
   5.30282     69.450173
   5.22360     70.501306
   5.14438     71.193562
   5.06516     71.435728
   5.06516     71.435728
   4.96813     71.331588
   4.87110     71.014258
   4.77408     70.462377
   4.67705     69.672038
   4.58002     68.735033
   4.48299     67.679709
   4.38597     66.571243
   4.28894     65.450165
   4.19191     64.347402
   4.09488     63.958177
   3.99786     65.497878
   3.90083     65.078054
   3.80380     64.571006
   3.70677     64.103906
   3.60975     63.679180
   3.51272     63.926252
   3.41569     63.882610
   3.31866     62.674488
   3.22164     61.482674
   3.22164     61.482674
   3.18930     61.390520
   3.15695     61.220345
   3.12461     61.113420
   3.09227     61.163393
   3.05993     61.397542
   3.02758     61.771242
   2.99524     62.227402
   2.96290     62.727783
   2.93056     63.249479
   2.89821     63.774650
   2.86587     64.282745
   2.83353     64.759516
   2.80119     65.179000
   2.76884     65.520571
   2.73650     65.798009
   2.70416     66.017693
   2.67182     66.185315
   2.63947     66.297274
   2.60713     66.339491
   2.60713     66.339491
   2.56139     66.291866
   2.51565     66.153524
   2.46991     65.936562
   2.42417     64.710706
   2.37844     63.445941
   2.33270     62.173492
   2.28696     60.914678
   2.24122     59.676048
   2.19548     58.479021
   2.14974     57.688883
   2.10400     58.069865
   2.05826     58.599802
   2.01252     57.959502
   1.96678     57.083591
   1.92104     56.291602
   1.87530     55.670122
   1.82957     55.370349
   1.78383     55.270833
   1.73809     55.219226
   1.73809     55.219226
   1.64661     54.732601
   1.55513     54.639568
   1.46365     54.625085
   1.37217     54.469437
   1.28070     55.387736
   1.18922     56.886039
   1.09774     58.411151
   1.00626     59.950333
   0.91478     61.495835
   0.82330     63.036523
   0.73183     64.522659
   0.64035     65.994526
   0.54887     67.386257
   0.45739     68.646427
   0.36591     69.672230
   0.27443     70.491012
   0.18296     71.035284
   0.09148     71.340458
   0.00000     71.435728
 
# Band-Index   23
   0.00000     71.435728
   0.09148     71.340460
   0.18296     71.035290
   0.27443     70.491030
   0.36591     69.672262
   0.45739     68.646469
   0.54887     67.386306
   0.64035     65.994578
   0.73183     64.522713
   0.82330     63.036580
   0.91478     64.274324
   1.00626     64.655953
   1.09774     64.116334
   1.18922     63.587784
   1.28070     63.321135
   1.37217     63.339589
   1.46365     63.498637
   1.55513     61.203565
   1.64661     59.140290
   1.73809     58.020183
   1.73809     58.020183
   1.78383     58.158667
   1.82957     58.521840
   1.87530     59.008385
   1.92104     59.570419
   1.96678     59.699488
   2.01252     59.148133
   2.05826     58.887437
   2.10400     59.846512
   2.14974     60.823192
   2.19548     61.807569
   2.24122     62.791158
   2.28696     63.765315
   2.33270     64.719663
   2.37844     65.356535
   2.42417     65.660716
   2.46991     65.977513
   2.51565     67.227163
   2.56139     68.333734
   2.60713     68.492322
   2.60713     68.492322
   2.63947     68.421912
   2.67182     68.248689
   2.70416     67.924514
   2.73650     67.406078
   2.76884     66.906686
   2.80119     66.483412
   2.83353     66.085475
   2.86587     65.733321
   2.89821     65.419436
   2.93056     65.106979
   2.96290     64.793767
   2.99524     64.475483
   3.02758     64.147823
   3.05993     63.797125
   3.09227     63.472081
   3.12461     63.134886
   3.15695     62.810964
   3.18930     62.545975
   3.22164     62.424939
   3.22164     62.424939
   3.31866     63.076308
   3.41569     64.633571
   3.51272     64.562823
   3.60975     64.888660
   3.70677     64.104497
   3.80380     64.893263
   3.90083     65.876866
   3.99786     65.624299
   4.09488     66.154802
   4.19191     66.768086
   4.28894     67.409598
   4.38597     68.071312
   4.48299     68.741371
   4.58002     69.402561
   4.67705     70.018477
   4.77408     70.578863
   4.87110     71.034419
   4.96813     71.332980
   5.06516     71.435728
   5.06516     71.435728
   5.14438     71.455312
   5.22360     71.513975
   5.30282     71.611361
   5.38205     71.732846
   5.46127     71.904280
   5.54049     72.111488
   5.61971     71.185143
   5.69894     69.637614
   5.77816     68.205466
   5.85738     67.001339
   5.93660     66.189302
   6.01583     65.936461
   6.09505     66.217323
   6.17427     66.825700
   6.25350     67.555284
   6.33272     68.234635
   6.41194     68.652171
   6.49116     68.093494
   6.57039     66.989654
 
# Band-Index   24
   6.57039     69.038630
   6.49116     69.453901
   6.41194     70.476252
   6.33272     71.887790
   6.25350     73.490422
   6.17427     74.694172
   6.09505     74.341303
   6.01583     73.980233
   5.93660     73.622725
   5.85738     73.277844
   5.77816     72.927539
   5.69894     72.625767
   5.61971     72.352745
   5.54049     72.820617
   5.46127     74.421363
   5.38205     75.898535
   5.30282     77.358129
   5.22360     78.612399
   5.14438     79.382356
   5.06516     79.874900
   5.06516     79.874900
   4.96813     79.052678
   4.87110     78.188263
   4.77408     77.514399
   4.67705     76.220634
   4.58002     74.898170
   4.48299     73.508415
   4.38597     72.140390
   4.28894     70.774182
   4.19191     69.449828
   4.09488     68.180966
   3.99786     66.985386
   3.90083     66.892627
   3.80380     67.872943
   3.70677     68.048287
   3.60975     66.212075
   3.51272     64.729461
   3.41569     65.188774
   3.31866     64.085486
   3.22164     62.687879
   3.22164     62.687879
   3.18930     62.756046
   3.15695     62.930591
   3.12461     63.179065
   3.09227     63.474043
   3.05993     63.814192
   3.02758     64.148915
   2.99524     64.520014
   2.96290     64.910091
   2.93056     65.314485
   2.89821     65.728846
   2.86587     66.119776
   2.83353     66.537757
   2.80119     66.946724
   2.76884     67.329634
   2.73650     67.687349
   2.70416     67.998694
   2.67182     68.430793
   2.63947     68.881300
   2.60713     69.211784
   2.60713     69.211784
   2.56139     68.384877
   2.51565     67.893404
   2.46991     67.247258
   2.42417     66.504556
   2.37844     65.640129
   2.33270     65.000526
   2.28696     64.627431
   2.24122     64.248302
   2.19548     63.609873
   2.14974     62.887394
   2.10400     62.180367
   2.05826     61.491130
   2.01252     60.822777
   1.96678     60.179954
   1.92104     60.217844
   1.87530     60.732227
   1.82957     61.189781
   1.78383     61.522983
   1.73809     61.620023
   1.73809     61.620023
   1.64661     62.216992
   1.55513     63.613531
   1.46365     63.623015
   1.37217     65.897127
   1.28070     68.362279
   1.18922     70.863295
   1.09774     69.472849
   1.00626     67.781642
   0.91478     67.156590
   0.82330     67.914794
   0.73183     69.088241
   0.64035     70.408123
   0.54887     71.803503
   0.45739     73.239346
   0.36591     74.671297
   0.27443     76.129338
   0.18296     77.522040
   0.09148     78.854108
   0.00000     79.874900
 
# Band-Index   25
   0.00000     79.874917
   0.09148     79.582385
   0.18296     78.934310
   0.27443     78.276474
   0.36591     77.781953
   0.45739     77.535967
   0.54887     77.485061
   0.64035     77.598490
   0.73183     77.816394
   0.82330     78.067109
   0.91478     77.679715
   1.00626     75.857142
   1.09774     73.376002
   1.18922     71.279743
   1.28070     69.477026
   1.37217     67.381956
   1.46365     65.397928
   1.55513     63.613542
   1.64661     62.217000
   1.73809     61.620029
   1.73809     61.620029
   1.78383     61.648201
   1.82957     61.753019
   1.87530     61.881582
   1.92104     62.058454
   1.96678     62.279532
   2.01252     62.540126
   2.05826     62.835176
   2.10400     63.159358
   2.14974     63.507069
   2.19548     63.872282
   2.24122     64.345745
   2.28696     65.092852
   2.33270     65.848484
   2.37844     66.608610
   2.42417     67.357444
   2.46991     68.089961
   2.51565     68.771731
   2.56139     69.272964
   2.60713     69.211845
   2.60713     69.211845
   2.63947     69.372804
   2.67182     69.345403
   2.70416     69.186981
   2.73650     68.962783
   2.76884     68.708000
   2.80119     68.452295
   2.83353     68.171279
   2.86587     67.881625
   2.89821     67.589792
   2.93056     67.293370
   2.96290     66.988014
   2.99524     66.698399
   3.02758     66.420362
   3.05993     66.161023
   3.09227     65.928779
   3.12461     65.733061
   3.15695     65.583664
   3.18930     65.491039
   3.22164     65.459009
   3.22164     65.459009
   3.31866     66.944017
   3.41569     65.673936
   3.51272     66.818447
   3.60975     67.536352
   3.70677     68.618900
   3.80380     70.918330
   3.90083     71.248114
   3.99786     71.784942
   4.09488     72.451000
   4.19191     73.158486
   4.28894     73.876799
   4.38597     74.606622
   4.48299     75.337202
   4.58002     76.093091
   4.67705     76.850250
   4.77408     77.567965
   4.87110     78.510826
   4.96813     79.293681
   5.06516     79.874917
   5.06516     79.874917
   5.14438     79.382356
   5.22360     78.880989
   5.30282     78.596708
   5.38205     78.490559
   5.46127     78.536083
   5.54049     78.685051
   5.61971     78.820650
   5.69894     79.081419
   5.77816     79.364360
   5.85738     79.615804
   5.93660     79.485585
   6.01583     78.429597
   6.09505     76.860766
   6.17427     75.171444
   6.25350     73.490422
   6.33272     71.887790
   6.41194     70.476252
   6.49116     69.453901
   6.57039     69.038630
 
# Band-Index   26
   6.57039     70.162004
   6.49116     70.250834
   6.41194     71.380709
   6.33272     73.559671
   6.25350     75.023939
   6.17427     75.171444
   6.09505     76.860766
   6.01583     78.429597
   5.93660     79.485585
   5.85738     79.615804
   5.77816     79.364360
   5.69894     79.081419
   5.61971     78.820650
   5.54049     78.685051
   5.46127     78.536083
   5.38205     78.490559
   5.30282     78.596708
   5.22360     78.880989
   5.14438     79.526315
   5.06516     79.874917
   5.06516     79.874917
   4.96813     79.532865
   4.87110     78.665485
   4.77408     77.666039
   4.67705     77.210399
   4.58002     77.101311
   4.48299     77.176877
   4.38597     77.381252
   4.28894     77.657273
   4.19191     77.919007
   4.09488     77.944359
   3.99786     76.257129
   3.90083     73.647549
   3.80380     71.099047
   3.70677     71.084740
   3.60975     69.247675
   3.51272     67.153123
   3.41569     67.458693
   3.31866     67.207307
   3.22164     69.090435
   3.22164     69.090435
   3.18930     69.105782
   3.15695     69.136642
   3.12461     69.212785
   3.09227     69.320001
   3.05993     69.458189
   3.02758     69.626865
   2.99524     69.824923
   2.96290     70.050376
   2.93056     70.300288
   2.89821     70.569549
   2.86587     70.787721
   2.83353     71.070307
   2.80119     71.344542
   2.76884     71.576340
   2.73650     71.774337
   2.70416     71.889657
   2.67182     71.903275
   2.63947     71.846889
   2.60713     71.826777
   2.60713     71.826777
   2.56139     72.049670
   2.51565     72.505534
   2.46991     72.762920
   2.42417     72.633029
   2.37844     72.286196
   2.33270     71.726603
   2.28696     71.115833
   2.24122     70.482458
   2.19548     69.838843
   2.14974     69.191593
   2.10400     68.545158
   2.05826     67.903355
   2.01252     67.270366
   1.96678     66.651826
   1.92104     66.056231
   1.87530     65.500869
   1.82957     65.016549
   1.78383     64.641773
   1.73809     64.486227
   1.73809     64.486227
   1.64661     64.386661
   1.55513     64.028703
   1.46365     65.397940
   1.37217     67.381969
   1.28070     69.477040
   1.18922     71.613961
   1.09774     73.809356
   1.00626     75.961127
   0.91478     77.679764
   0.82330     78.067201
   0.73183     77.816484
   0.64035     77.598574
   0.54887     77.485137
   0.45739     77.536031
   0.36591     77.782003
   0.27443     78.276505
   0.18296     78.934322
   0.09148     79.582390
   0.00000     79.874917
 
# Band-Index   27
   0.00000     80.478661
   0.09148     80.950931
   0.18296     82.172803
   0.27443     83.205801
   0.36591     83.987583
   0.45739     84.258697
   0.54887     83.836473
   0.64035     83.148439
   0.73183     82.019699
   0.82330     80.347390
   0.91478     78.228152
   1.00626     75.961127
   1.09774     73.809366
   1.18922     71.613974
   1.28070     72.989426
   1.37217     74.239891
   1.46365     74.870969
   1.55513     75.008550
   1.64661     74.913843
   1.73809     74.818722
   1.73809     74.818722
   1.78383     74.847640
   1.82957     74.873622
   1.87530     74.865305
   1.92104     74.851126
   1.96678     74.858847
   2.01252     74.836511
   2.05826     74.811011
   2.10400     74.783932
   2.14974     74.757015
   2.19548     74.732107
   2.24122     74.711267
   2.28696     74.696775
   2.33270     74.691356
   2.37844     74.698524
   2.42417     74.678109
   2.46991     74.653800
   2.51565     73.413722
   2.56139     72.342361
   2.60713     71.826844
   2.60713     71.826844
   2.63947     71.969440
   2.67182     72.291750
   2.70416     72.721723
   2.73650     73.191337
   2.76884     73.613191
   2.80119     73.414105
   2.83353     73.153037
   2.86587     72.909278
   2.89821     72.721061
   2.93056     72.522230
   2.96290     72.346135
   2.99524     72.192722
   3.02758     72.061459
   3.05993     71.951805
   3.09227     71.863200
   3.12461     71.795128
   3.15695     71.747153
   3.18930     71.731992
   3.22164     71.722219
   3.22164     71.722219
   3.31866     69.776972
   3.41569     68.749198
   3.51272     70.093881
   3.60975     71.046390
   3.70677     71.421018
   3.80380     73.625677
   3.90083     75.842008
   3.99786     77.279194
   4.09488     78.909938
   4.19191     81.590475
   4.28894     83.840672
   4.38597     84.088045
   4.48299     83.963538
   4.58002     83.572528
   4.67705     83.037089
   4.77408     82.442426
   4.87110     81.778226
   4.96813     81.044847
   5.06516     80.478661
   5.06516     80.478661
   5.14438     81.064249
   5.22360     81.780705
   5.30282     82.248442
   5.38205     82.481981
   5.46127     82.682387
   5.54049     82.796707
   5.61971     82.765756
   5.69894     82.694031
   5.77816     82.419492
   5.85738     81.893851
   5.93660     81.186065
   6.01583     81.076955
   6.09505     80.672181
   6.17427     78.349057
   6.25350     75.942949
   6.33272     75.312568
   6.41194     75.539926
   6.49116     75.688454
   6.57039     75.738987
 
# Band-Index   28
   6.57039     81.439093
   6.49116     81.577419
   6.41194     81.867598
   6.33272     82.251873
   6.25350     81.989344
   6.17427     81.663783
   6.09505     81.333934
   6.01583     81.076955
   5.93660     81.186065
   5.85738     81.893851
   5.77816     82.419492
   5.69894     82.694031
   5.61971     82.765756
   5.54049     82.796707
   5.46127     82.682387
   5.38205     82.481981
   5.30282     82.248442
   5.22360     81.780705
   5.14438     81.064249
   5.06516     80.478661
   5.06516     80.478661
   4.96813     81.427323
   4.87110     82.669805
   4.77408     83.726239
   4.67705     84.566988
   4.58002     85.318188
   4.48299     85.539103
   4.38597     85.018515
   4.28894     83.896553
   4.19191     82.147516
   4.09488     80.149914
   3.99786     78.037863
   3.90083     76.021586
   3.80380     74.668573
   3.70677     73.619104
   3.60975     73.307231
   3.51272     74.047970
   3.41569     75.647526
   3.31866     75.781761
   3.22164     74.782888
   3.22164     74.782888
   3.18930     74.785198
   3.15695     74.736904
   3.12461     74.745974
   3.09227     74.759718
   3.05993     74.778232
   3.02758     74.801668
   2.99524     74.830235
   2.96290     74.864233
   2.93056     74.916574
   2.89821     74.961051
   2.86587     74.961683
   2.83353     74.595269
   2.80119     74.144488
   2.76884     73.690769
   2.73650     73.925029
   2.70416     74.224222
   2.67182     74.530135
   2.63947     74.824259
   2.60713     75.001217
   2.60713     75.001217
   2.56139     74.833920
   2.51565     74.711753
   2.46991     74.660293
   2.42417     75.296598
   2.37844     75.965012
   2.33270     76.729557
   2.28696     77.553683
   2.24122     78.404154
   2.19548     79.263489
   2.14974     80.118189
   2.10400     80.953523
   2.05826     81.578795
   2.01252     81.905124
   1.96678     82.183203
   1.92104     82.411967
   1.87530     82.590280
   1.82957     82.717209
   1.78383     82.696923
   1.73809     82.698278
   1.73809     82.698278
   1.64661     82.654781
   1.55513     82.421712
   1.46365     82.061826
   1.37217     81.636895
   1.28070     81.232179
   1.18922     80.691949
   1.09774     80.178301
   1.00626     79.775037
   0.91478     79.870328
   0.82330     81.348652
   0.73183     83.291699
   0.64035     85.271305
   0.54887     85.363249
   0.45739     84.732265
   0.36591     84.517319
   0.27443     83.830031
   0.18296     82.258658
   0.09148     81.425462
   0.00000     80.478661
 
# Band-Index   29
   0.00000     84.982714
   0.09148     84.964530
   0.18296     84.904280
   0.27443     84.801781
   0.36591     85.724591
   0.45739     87.533838
   0.54887     86.808701
   0.64035     85.271340
   0.73183     83.291730
   0.82330     81.348676
   0.91478     79.870354
   1.00626     79.775118
   1.09774     80.178398
   1.18922     80.692055
   1.28070     81.232292
   1.37217     81.637011
   1.46365     82.061948
   1.55513     82.421839
   1.64661     82.654911
   1.73809     82.698410
   1.73809     82.698410
   1.78383     82.772984
   1.82957     82.777920
   1.87530     82.768673
   1.92104     82.757426
   1.96678     82.736726
   2.01252     82.478336
   2.05826     81.749686
   2.10400     81.127364
   2.14974     80.332288
   2.19548     79.562461
   2.24122     78.825171
   2.28696     78.128210
   2.33270     77.480562
   2.37844     76.893029
   2.42417     75.951395
   2.46991     74.880329
   2.51565     74.989056
   2.56139     75.406818
   2.60713     75.174227
   2.60713     75.174227
   2.63947     75.305808
   2.67182     75.368866
   2.70416     75.262926
   2.73650     75.163278
   2.76884     75.081382
   2.80119     75.087336
   2.83353     75.019375
   2.86587     75.027100
   2.89821     75.453118
   2.93056     75.862426
   2.96290     76.257281
   2.99524     76.640455
   3.02758     77.007707
   3.05993     77.355056
   3.09227     77.676107
   3.12461     77.960737
   3.15695     78.193116
   3.18930     78.350371
   3.22164     78.406879
   3.22164     78.406879
   3.31866     77.540403
   3.41569     76.781285
   3.51272     76.053053
   3.60975     75.959822
   3.70677     76.783892
   3.80380     78.258491
   3.90083     79.864794
   3.99786     80.643913
   4.09488     81.058849
   4.19191     82.373573
   4.28894     83.897246
   4.38597     85.236034
   4.48299     86.005866
   4.58002     86.351279
   4.67705     86.303007
   4.77408     86.004650
   4.87110     85.582485
   4.96813     85.137777
   5.06516     84.982714
   5.06516     84.982714
   5.14438     85.148587
   5.22360     85.529707
   5.30282     85.926274
   5.38205     86.308964
   5.46127     86.629140
   5.54049     86.820026
   5.61971     86.840174
   5.69894     86.589893
   5.77816     85.979455
   5.85738     85.322103
   5.93660     84.277499
   6.01583     82.729379
   6.09505     81.333934
   6.17427     81.663783
   6.25350     81.989344
   6.33272     82.251873
   6.41194     82.473033
   6.49116     82.632904
   6.57039     82.682001
 
# Band-Index   30
   6.57039     82.682001
   6.49116     82.632904
   6.41194     82.473033
   6.33272     82.372520
   6.25350     83.009015
   6.17427     83.680685
   6.09505     84.371683
   6.01583     85.062672
   5.93660     85.543039
   5.85738     86.089247
   5.77816     86.618959
   5.69894     86.890039
   5.61971     87.339223
   5.54049     87.919740
   5.46127     88.392070
   5.38205     87.411532
   5.30282     86.494589
   5.22360     85.667080
   5.14438     85.148587
   5.06516     84.982722
   5.06516     84.982722
   4.96813     85.205696
   4.87110     85.707175
   4.77408     86.251854
   4.67705     87.031821
   4.58002     87.783789
   4.48299     87.242638
   4.38597     86.584790
   4.28894     84.225045
   4.19191     83.330819
   4.09488     82.456495
   3.99786     81.289923
   3.90083     80.744920
   3.80380     81.113545
   3.70677     81.550810
   3.60975     80.429065
   3.51272     78.789544
   3.41569     77.261902
   3.31866     77.679931
   3.22164     79.883747
   3.22164     79.883747
   3.18930     79.891626
   3.15695     79.901542
   3.12461     79.886030
   3.09227     79.821917
   3.05993     79.698681
   3.02758     79.516585
   2.99524     79.281893
   2.96290     79.002496
   2.93056     78.701246
   2.89821     78.349208
   2.86587     77.967000
   2.83353     77.578782
   2.80119     77.155160
   2.76884     76.720840
   2.73650     76.302228
   2.70416     75.911897
   2.67182     75.571972
   2.63947     75.383459
   2.60713     75.359930
   2.60713     75.359930
   2.56139     75.428514
   2.51565     75.629762
   2.46991     75.951676
   2.42417     76.378367
   2.37844     77.188285
   2.33270     78.267447
   2.28696     79.108189
   2.24122     79.760933
   2.19548     80.305704
   2.14974     80.782038
   2.10400     81.204762
   2.05826     81.940079
   2.01252     82.683214
   1.96678     83.102368
   1.92104     83.575668
   1.87530     83.915169
   1.82957     84.124400
   1.78383     84.228699
   1.73809     84.256376
   1.73809     84.256376
   1.64661     83.961923
   1.55513     83.216353
   1.46365     82.498608
   1.37217     82.153789
   1.28070     82.481713
   1.18922     82.824231
   1.09774     83.369502
   1.00626     83.984384
   0.91478     84.633655
   0.82330     85.305018
   0.73183     85.853589
   0.64035     85.881558
   0.54887     86.808737
   0.45739     87.533872
   0.36591     87.407422
   0.27443     86.949054
   0.18296     86.091064
   0.09148     85.327278
   0.00000     84.982722
 
# Band-Index   31
   0.00000     84.982722
   0.09148     85.327288
   0.18296     86.091081
   0.27443     86.949079
   0.36591     87.407451
   0.45739     87.754070
   0.54887     87.318055
   0.64035     86.643742
   0.73183     86.441120
   0.82330     86.817561
   0.91478     87.139820
   1.00626     86.869221
   1.09774     86.626744
   1.18922     86.488880
   1.28070     86.414144
   1.37217     86.372114
   1.46365     86.361015
   1.55513     86.360766
   1.64661     86.363512
   1.73809     86.359610
   1.73809     86.359610
   1.78383     86.191352
   1.82957     85.753932
   1.87530     85.116612
   1.92104     84.374266
   1.96678     83.578978
   2.01252     82.761376
   2.05826     82.577097
   2.10400     82.378791
   2.14974     82.040505
   2.19548     81.531450
   2.24122     80.865117
   2.28696     80.088573
   2.33270     79.251985
   2.37844     78.395967
   2.42417     77.544989
   2.46991     76.756963
   2.51565     76.059470
   2.56139     75.499501
   2.60713     75.940065
   2.60713     75.940065
   2.63947     75.712424
   2.67182     75.708395
   2.70416     76.009026
   2.73650     76.501024
   2.76884     77.128315
   2.80119     77.849691
   2.83353     78.633601
   2.86587     79.459413
   2.89821     80.329639
   2.93056     81.194370
   2.96290     82.027531
   2.99524     82.889520
   3.02758     83.012193
   3.05993     83.039571
   3.09227     83.049641
   3.12461     83.072125
   3.15695     83.111362
   3.18930     83.152862
   3.22164     83.170959
   3.22164     83.170959
   3.31866     82.924275
   3.41569     82.677000
   3.51272     82.345043
   3.60975     81.977400
   3.70677     82.072350
   3.80380     83.665234
   3.90083     85.179909
   3.99786     86.550332
   4.09488     86.690971
   4.19191     86.622494
   4.28894     86.593001
   4.38597     86.802955
   4.48299     87.928803
   4.58002     87.851387
   4.67705     88.119495
   4.77408     87.519115
   4.87110     86.447651
   4.96813     85.387217
   5.06516     84.982722
   5.06516     84.982722
   5.14438     85.186923
   5.22360     85.667080
   5.30282     86.494589
   5.38205     87.411532
   5.46127     88.392070
   5.54049     89.077282
   5.61971     89.028462
   5.69894     88.232212
   5.77816     87.053358
   5.85738     86.089247
   5.93660     85.543039
   6.01583     85.348215
   6.09505     85.337878
   6.17427     85.415119
   6.25350     85.529788
   6.33272     85.472825
   6.41194     85.282365
   6.49116     85.249550
   6.57039     85.207642
 
# Band-Index   32
   6.57039     85.849529
   6.49116     85.823933
   6.41194     85.749726
   6.33272     85.644170
   6.25350     85.529788
   6.17427     85.415119
   6.09505     85.337878
   6.01583     85.348215
   5.93660     85.711776
   5.85738     86.240893
   5.77816     87.053358
   5.69894     88.232212
   5.61971     89.028462
   5.54049     89.077282
   5.46127     88.467482
   5.38205     88.685725
   5.30282     89.111211
   5.22360     89.451848
   5.14438     89.684114
   5.06516     89.764847
   5.06516     89.764847
   4.96813     89.644515
   4.87110     89.312248
   4.77408     88.844972
   4.67705     89.022185
   4.58002     90.237889
   4.48299     91.220424
   4.38597     90.997742
   4.28894     89.814994
   4.19191     88.778697
   4.09488     87.719980
   3.99786     86.725432
   3.90083     86.402125
   3.80380     85.739181
   3.70677     85.148303
   3.60975     84.635717
   3.51272     84.259319
   3.41569     84.088545
   3.31866     84.119276
   3.22164     84.477944
   3.22164     84.477944
   3.18930     84.526616
   3.15695     84.631426
   3.12461     84.817395
   3.09227     85.028551
   3.05993     84.497256
   3.02758     83.723486
   2.99524     82.901213
   2.96290     82.606398
   2.93056     82.100984
   2.89821     81.436197
   2.86587     80.699875
   2.83353     80.028257
   2.80119     79.314833
   2.76884     78.618820
   2.73650     77.980330
   2.70416     77.384753
   2.67182     76.832525
   2.63947     76.332219
   2.60713     75.940108
   2.60713     75.940108
   2.56139     76.517280
   2.51565     77.116123
   2.46991     77.733553
   2.42417     78.382972
   2.37844     79.107566
   2.33270     79.995742
   2.28696     81.119215
   2.24122     82.418333
   2.19548     83.803407
   2.14974     85.222824
   2.10400     86.380644
   2.05826     86.399654
   2.01252     86.495024
   1.96678     86.694550
   1.92104     86.979981
   1.87530     87.403064
   1.82957     87.864845
   1.78383     88.161512
   1.73809     88.218198
   1.73809     88.218198
   1.64661     88.242083
   1.55513     88.100058
   1.46365     87.985777
   1.37217     87.884481
   1.28070     87.862773
   1.18922     87.722897
   1.09774     87.585774
   1.00626     87.394547
   0.91478     87.292491
   0.82330     88.034125
   0.73183     89.251750
   0.64035     91.076294
   0.54887     89.861039
   0.45739     88.009385
   0.36591     88.325487
   0.27443     88.895375
   0.18296     89.353808
   0.09148     89.657343
   0.00000     89.764847
 
# Band-Index   33
   0.00000     97.196765
   0.09148     97.156973
   0.18296     96.666506
   0.27443     96.630713
   0.36591     95.664254
   0.45739     94.213969
   0.54887     93.196764
   0.64035     92.006509
   0.73183     92.600231
   0.82330     92.666227
   0.91478     92.629325
   1.00626     92.574893
   1.09774     92.505095
   1.18922     92.429072
   1.28070     92.408124
   1.37217     92.050965
   1.46365     92.058710
   1.55513     92.134240
   1.64661     92.288012
   1.73809     92.461823
   1.73809     92.461823
   1.78383     92.265164
   1.82957     91.503819
   1.87530     90.648582
   1.92104     89.759133
   1.96678     88.908512
   2.01252     88.024596
   2.05826     87.190383
   2.10400     86.449649
   2.14974     85.852713
   2.19548     85.432028
   2.24122     85.175552
   2.28696     85.038296
   2.33270     84.973842
   2.37844     84.948612
   2.42417     84.865321
   2.46991     84.811360
   2.51565     84.833821
   2.56139     84.849665
   2.60713     84.855348
   2.60713     84.855348
   2.63947     84.841336
   2.67182     84.802318
   2.70416     84.742548
   2.73650     84.666227
   2.76884     84.577886
   2.80119     84.595202
   2.83353     84.504851
   2.86587     84.425926
   2.89821     84.528518
   2.93056     84.548111
   2.96290     84.695895
   2.99524     85.033007
   3.02758     85.290625
   3.05993     85.224392
   3.09227     85.157686
   3.12461     85.641335
   3.15695     85.929781
   3.18930     86.073577
   3.22164     86.114051
   3.22164     86.114051
   3.31866     86.591082
   3.41569     87.147614
   3.51272     87.776006
   3.60975     87.977620
   3.70677     87.768647
   3.80380     87.638736
   3.90083     87.687061
   3.99786     88.290357
   4.09488     89.519540
   4.19191     90.903019
   4.28894     91.519973
   4.38597     91.797769
   4.48299     92.622622
   4.58002     94.030745
   4.67705     95.644847
   4.77408     96.737161
   4.87110     97.130205
   4.96813     97.171896
   5.06516     97.196765
   5.06516     97.196765
   5.14438     97.182888
   5.22360     97.094850
   5.30282     96.836655
   5.38205     96.273620
   5.46127     95.552355
   5.54049     94.157311
   5.61971     92.996216
   5.69894     92.587242
   5.77816     92.574373
   5.85738     91.143406
   5.93660     89.116710
   6.01583     87.655420
   6.09505     86.751079
   6.17427     86.169280
   6.25350     85.765702
   6.33272     85.644170
   6.41194     85.749726
   6.49116     85.823933
   6.57039     85.849529
 
# Band-Index   34
   6.57039     87.037028
   6.49116     87.134718
   6.41194     87.419873
   6.33272     87.882784
   6.25350     88.501222
   6.17427     89.255018
   6.09505     90.126092
   6.01583     91.099484
   5.93660     92.163358
   5.85738     92.751558
   5.77816     92.574373
   5.69894     92.587242
   5.61971     92.996216
   5.54049     94.157311
   5.46127     95.552355
   5.38205     96.602073
   5.30282     97.046025
   5.22360     97.191426
   5.14438     97.198224
   5.06516     97.196765
   5.06516     97.196765
   4.96813     97.191438
   4.87110     97.142583
   4.77408     96.749470
   4.67705     95.778449
   4.58002     94.237668
   4.48299     92.630146
   4.38597     91.864386
   4.28894     91.814311
   4.19191     91.512979
   4.09488     91.585038
   3.99786     91.757291
   3.90083     91.237826
   3.80380     90.192584
   3.70677     89.285219
   3.60975     88.485978
   3.51272     88.281713
   3.41569     88.749470
   3.31866     89.167973
   3.22164     88.814406
   3.22164     88.814406
   3.18930     88.653530
   3.15695     88.264771
   3.12461     87.846903
   3.09227     87.531587
   3.05993     86.963335
   3.02758     86.396579
   2.99524     86.274135
   2.96290     86.445611
   2.93056     86.704343
   2.89821     86.973849
   2.86587     87.180653
   2.83353     87.417787
   2.80119     87.488926
   2.76884     87.553439
   2.73650     87.640107
   2.70416     87.734362
   2.67182     87.835856
   2.63947     87.944341
   2.60713     88.059615
   2.60713     88.059615
   2.56139     87.828037
   2.51565     87.608044
   2.46991     87.400176
   2.42417     87.213363
   2.37844     87.049408
   2.33270     86.879979
   2.28696     86.728446
   2.24122     86.597619
   2.19548     86.491512
   2.14974     86.416102
   2.10400     86.644003
   2.05826     88.032299
   2.01252     89.333240
   1.96678     90.461669
   1.92104     91.339286
   1.87530     91.968313
   1.82957     92.400769
   1.78383     92.484147
   1.73809     92.461847
   1.73809     92.461847
   1.64661     92.288032
   1.55513     92.134259
   1.46365     92.058730
   1.37217     92.050985
   1.28070     92.408145
   1.18922     92.429095
   1.09774     92.505118
   1.00626     92.574917
   0.91478     92.629348
   0.82330     92.666251
   0.73183     92.600257
   0.64035     92.748332
   0.54887     93.196790
   0.45739     94.213994
   0.36591     95.664282
   0.27443     96.839841
   0.18296     97.188936
   0.09148     97.208266
   0.00000     97.196765
 
# Band-Index   35
   0.00000     97.196856
   0.09148     97.208326
   0.18296     97.188992
   0.27443     96.839885
   0.36591     96.479621
   0.45739     95.892471
   0.54887     93.362379
   0.64035     92.748358
   0.73183     94.157780
   0.82330     96.325560
   0.91478     97.569220
   1.00626     96.890192
   1.09774     96.230825
   1.18922     95.597076
   1.28070     95.015983
   1.37217     94.337854
   1.46365     93.776839
   1.55513     93.305278
   1.64661     92.914583
   1.73809     92.563294
   1.73809     92.563294
   1.78383     92.655882
   1.82957     93.207497
   1.87530     93.526454
   1.92104     93.563067
   1.96678     93.485213
   2.01252     92.688101
   2.05826     92.073762
   2.10400     91.568925
   2.14974     91.129289
   2.19548     90.732240
   2.24122     90.365949
   2.28696     90.023617
   2.33270     89.700939
   2.37844     89.394986
   2.42417     89.101248
   2.46991     88.822489
   2.51565     88.556714
   2.56139     88.302522
   2.60713     88.059638
   2.60713     88.059638
   2.63947     88.145505
   2.67182     88.161564
   2.70416     88.107571
   2.73650     87.990054
   2.76884     87.819329
   2.80119     87.700536
   2.83353     87.459146
   2.86587     87.356437
   2.89821     87.336628
   2.93056     87.297414
   2.96290     87.234482
   2.99524     87.230716
   3.02758     87.261452
   3.05993     87.349003
   3.09227     87.715825
   3.12461     88.499011
   3.15695     89.227965
   3.18930     89.793151
   3.22164     90.018966
   3.22164     90.018966
   3.31866     89.298814
   3.41569     89.594186
   3.51272     90.051270
   3.60975     90.570934
   3.70677     91.142859
   3.80380     91.776946
   3.90083     91.854252
   3.99786     92.439867
   4.09488     93.692918
   4.19191     94.018175
   4.28894     93.245650
   4.38597     92.627938
   4.48299     93.020232
   4.58002     94.977836
   4.67705     96.598805
   4.77408     96.832422
   4.87110     97.182524
   4.96813     97.209076
   5.06516     97.196856
   5.06516     97.196856
   5.14438     97.198224
   5.22360     97.191426
   5.30282     97.046025
   5.38205     96.602073
   5.46127     96.176988
   5.54049     96.031452
   5.61971     95.477020
   5.69894     94.871485
   5.77816     93.287023
   5.85738     92.751558
   5.93660     92.768832
   6.01583     92.724503
   6.09505     92.631122
   6.17427     92.506178
   6.25350     92.368250
   6.33272     92.216449
   6.41194     92.094656
   6.49116     92.123515
   6.57039     92.076905
 
# Band-Index   36
   6.57039     92.076905
   6.49116     92.123515
   6.41194     92.094656
   6.33272     92.216449
   6.25350     92.368250
   6.17427     92.506178
   6.09505     92.631122
   6.01583     92.724503
   5.93660     92.768832
   5.85738     93.308564
   5.77816     94.524771
   5.69894     95.813512
   5.61971     97.167008
   5.54049     98.582054
   5.46127     98.749323
   5.38205     99.171450
   5.30282    100.387490
   5.22360    101.771230
   5.14438    102.853184
   5.06516    103.281294
   5.06516    103.281294
   4.96813    102.621135
   4.87110    101.014757
   4.77408     99.364733
   4.67705     97.665773
   4.58002     97.031339
   4.48299     97.564367
   4.38597     96.958520
   4.28894     95.866935
   4.19191     94.802097
   4.09488     94.376150
   3.99786     93.321691
   3.90083     92.491425
   3.80380     91.947370
   3.70677     92.079324
   3.60975     92.279358
   3.51272     92.557515
   3.41569     93.013033
   3.31866     93.410308
   3.22164     93.217619
   3.22164     93.217619
   3.18930     93.425554
   3.15695     93.892541
   3.12461     93.897739
   3.09227     93.905078
   3.05993     93.914620
   3.02758     93.926522
   2.99524     93.940995
   2.96290     93.958287
   2.93056     93.990998
   2.89821     94.014624
   2.86587     94.016224
   2.83353     94.082491
   2.80119     94.119629
   2.76884     94.143594
   2.73650     94.187467
   2.70416     94.234283
   2.67182     94.284124
   2.63947     94.337106
   2.60713     94.392152
   2.60713     94.392152
   2.56139     94.281718
   2.51565     94.180190
   2.46991     94.089087
   2.42417     94.011172
   2.37844     93.942443
   2.33270     93.884383
   2.28696     93.835938
   2.24122     93.795599
   2.19548     93.761736
   2.14974     93.732792
   2.10400     93.707233
   2.05826     93.683588
   2.01252     93.660232
   1.96678     93.635125
   1.92104     94.527001
   1.87530     93.890699
   1.82957     93.263249
   1.78383     92.723621
   1.73809     92.563312
   1.73809     92.563312
   1.64661     92.914608
   1.55513     93.305307
   1.46365     93.776872
   1.37217     94.337892
   1.28070     95.016022
   1.18922     95.597118
   1.09774     96.230869
   1.00626     96.890237
   0.91478     97.569264
   0.82330     98.258926
   0.73183     97.683462
   0.64035     97.254183
   0.54887     96.903077
   0.45739     96.638947
   0.36591     98.432499
   0.27443     99.918772
   0.18296    101.266525
   0.09148    102.713667
   0.00000    103.281294
 
# Band-Index   37
   0.00000    103.283472
   0.09148    102.713717
   0.18296    101.266553
   0.27443     99.918797
   0.36591     99.496900
   0.45739     99.736595
   0.54887     99.841140
   0.64035     99.518392
   0.73183     98.930268
   0.82330     98.258969
   0.91478     98.405187
   1.00626     97.962405
   1.09774     96.938021
   1.18922     96.015920
   1.28070     95.245730
   1.37217     94.578584
   1.46365     93.948350
   1.55513     93.496600
   1.64661     93.243679
   1.73809     92.891974
   1.73809     92.891974
   1.78383     93.161589
   1.82957     93.462619
   1.87530     94.002058
   1.92104     94.677914
   1.96678     95.483096
   2.01252     95.606784
   2.05826     95.664353
   2.10400     95.670948
   2.14974     95.640168
   2.19548     95.583439
   2.24122     95.510089
   2.28696     95.427634
   2.33270     95.342087
   2.37844     95.258182
   2.42417     95.108153
   2.46991     94.779968
   2.51565     94.644315
   2.56139     94.514833
   2.60713     94.394865
   2.60713     94.394865
   2.63947     94.495777
   2.67182     94.686623
   2.70416     94.960583
   2.73650     95.305048
   2.76884     95.702710
   2.80119     96.355827
   2.83353     96.770294
   2.86587     97.122471
   2.89821     97.475033
   2.93056     97.729804
   2.96290     97.833132
   2.99524     97.789755
   3.02758     97.348071
   3.05993     96.425056
   3.09227     95.528518
   3.12461     94.686168
   3.15695     93.948010
   3.18930     93.897060
   3.22164     93.899107
   3.22164     93.899107
   3.31866     93.479527
   3.41569     93.665871
   3.51272     93.903918
   3.60975     94.195640
   3.70677     94.482678
   3.80380     94.733315
   3.90083     94.893147
   3.99786     94.879726
   4.09488     94.599954
   4.19191     95.814512
   4.28894     96.461091
   4.38597     97.902873
   4.48299     98.071664
   4.58002     98.704154
   4.67705     98.493907
   4.77408    100.256984
   4.87110    101.431791
   4.96813    102.687068
   5.06516    103.283472
   5.06516    103.283472
   5.14438    102.853184
   5.22360    101.771230
   5.30282    100.387490
   5.38205     99.171450
   5.46127     98.749323
   5.54049     98.807135
   5.61971     98.710576
   5.69894     97.489384
   5.77816     96.172123
   5.85738     95.682429
   5.93660     95.357004
   6.01583     95.112368
   6.09505     94.579725
   6.17427     93.981662
   6.25350     93.469889
   6.33272     93.059464
   6.41194     92.765260
   6.49116     92.661854
   6.57039     92.606135
 
# Band-Index   38
   6.57039     92.606135
   6.49116     92.661854
   6.41194     92.765260
   6.33272     93.059464
   6.25350     93.469889
   6.17427     93.981662
   6.09505     94.579725
   6.01583     95.250673
   5.93660     95.981514
   5.85738     96.756064
   5.77816     97.509410
   5.69894     98.238103
   5.61971     98.710576
   5.54049     98.807135
   5.46127    100.056127
   5.38205    101.587190
   5.30282    102.338523
   5.22360    102.796521
   5.14438    103.158765
   5.06516    103.283472
   5.06516    103.283472
   4.96813    103.096325
   4.87110    102.560793
   4.77408    100.573965
   4.67705     99.680878
   4.58002     99.083741
   4.48299     99.235845
   4.38597     98.008173
   4.28894     97.635958
   4.19191     95.895223
   4.09488     95.751997
   3.99786     95.926075
   3.90083     95.792133
   3.80380     95.527522
   3.70677     95.274704
   3.60975     95.042375
   3.51272     94.503052
   3.41569     94.318286
   3.31866     94.002406
   3.22164     94.062257
   3.22164     94.062257
   3.18930     94.290621
   3.15695     94.826197
   3.12461     95.538775
   3.09227     96.286478
   3.05993     96.975168
   3.02758     97.504011
   2.99524     98.279971
   2.96290     99.207403
   2.93056    100.119151
   2.89821    101.003045
   2.86587    101.734829
   2.83353    102.515392
   2.80119    102.690887
   2.76884    102.604254
   2.73650    102.646889
   2.70416    102.700745
   2.67182    102.756508
   2.63947    102.802140
   2.60713    102.821650
   2.60713    102.821650
   2.56139    102.835480
   2.51565    102.875558
   2.46991    102.937524
   2.42417    103.075512
   2.37844    102.887747
   2.33270    102.171136
   2.28696    101.418533
   2.24122    100.632896
   2.19548     99.818192
   2.14974     98.979308
   2.10400     98.122035
   2.05826     97.253279
   2.01252     96.381661
   1.96678     95.518777
   1.92104     94.888366
   1.87530     94.971417
   1.82957     94.599952
   1.78383     94.172335
   1.73809     93.801859
   1.73809     93.801859
   1.64661     94.275357
   1.55513     95.488602
   1.46365     97.218828
   1.37217     99.058597
   1.28070    100.128231
   1.18922    100.465912
   1.09774    100.547190
   1.00626     99.833145
   0.91478     99.043379
   0.82330     98.636510
   0.73183     98.930309
   0.64035     99.518429
   0.54887     99.841171
   0.45739     99.736626
   0.36591     99.496932
   0.27443    100.760944
   0.18296    102.365541
   0.09148    103.100649
   0.00000    103.283472
 
# Band-Index   39
   0.00000    103.283569
   0.09148    103.189415
   0.18296    103.074277
   0.27443    103.003879
   0.36591    102.807929
   0.45739    102.708821
   0.54887    102.384494
   0.64035    101.837078
   0.73183    101.054240
   0.82330    100.126629
   0.91478     99.201643
   1.00626    100.389201
   1.09774    100.863920
   1.18922    101.331048
   1.28070    100.988091
   1.37217     99.770159
   1.46365     99.554644
   1.55513     99.400551
   1.64661     99.308053
   1.73809     99.276482
   1.73809     99.276482
   1.78383     98.557204
   1.82957     97.173853
   1.87530     95.786886
   1.92104     95.265919
   1.96678     95.870798
   2.01252     96.919711
   2.05826     98.017802
   2.10400     99.154531
   2.14974    100.323106
   2.19548    101.518857
   2.24122    102.738289
   2.28696    103.338287
   2.33270    103.332919
   2.37844    103.296899
   2.42417    103.494827
   2.46991    104.106850
   2.51565    104.723482
   2.56139    105.304722
   2.60713    105.851646
   2.60713    105.851646
   2.63947    105.565261
   2.67182    105.228724
   2.70416    104.830059
   2.73650    104.358049
   2.76884    103.805012
   2.80119    103.227312
   2.83353    102.709430
   2.86587    102.710308
   2.89821    102.825463
   2.93056    102.257023
   2.96290    101.517271
   2.99524    100.888546
   3.02758    100.431484
   3.05993    100.169144
   3.09227    100.043587
   3.12461     99.987733
   3.15695     99.962234
   3.18930    100.035552
   3.22164    100.035924
   3.22164    100.035924
   3.31866    100.093362
   3.41569    100.188493
   3.51272     99.838467
   3.60975     99.516380
   3.70677     99.063700
   3.80380     98.411171
   3.90083     98.070453
   3.99786     97.755488
   4.09488     97.895804
   4.19191     98.158822
   4.28894     98.234498
   4.38597     99.261115
   4.48299     99.717806
   4.58002    100.490701
   4.67705    100.841041
   4.77408    101.736141
   4.87110    103.086009
   4.96813    103.191454
   5.06516    103.283569
   5.06516    103.283569
   5.14438    103.219279
   5.22360    103.111939
   5.30282    103.073317
   5.38205    101.827689
   5.46127    101.383612
   5.54049    100.869852
   5.61971     99.654265
   5.69894     98.238103
   5.77816     97.509410
   5.85738     96.756064
   5.93660     95.981514
   6.01583     95.250673
   6.09505     94.925148
   6.17427     94.786150
   6.25350     94.688476
   6.33272     94.478998
   6.41194     94.443231
   6.49116     94.998346
   6.57039     94.986088
 
# Band-Index   40
   6.57039    100.702709
   6.49116    100.711024
   6.41194    100.719965
   6.33272    100.744220
   6.25350    100.773200
   6.17427    100.793001
   6.09505    100.797805
   6.01583    100.780463
   5.93660    100.741570
   5.85738    100.697159
   5.77816    100.555933
   5.69894    100.633477
   5.61971    101.028361
   5.54049    101.896765
   5.46127    102.718140
   5.38205    103.089744
   5.30282    103.303092
   5.22360    104.942807
   5.14438    104.698383
   5.06516    104.385213
   5.06516    104.385213
   4.96813    104.840944
   4.87110    103.537323
   4.77408    102.931369
   4.67705    102.568359
   4.58002    101.422374
   4.48299    100.239432
   4.38597    100.008356
   4.28894    100.980605
   4.19191    102.095369
   4.09488    103.267821
   3.99786    104.207199
   3.90083    104.533586
   3.80380    104.890386
   3.70677    105.283200
   3.60975    105.720255
   3.51272    106.055493
   3.41569    106.910060
   3.31866    107.285678
   3.22164    107.448044
   3.22164    107.448044
   3.18930    107.261727
   3.15695    106.754597
   3.12461    106.208123
   3.09227    105.635569
   3.05993    105.077445
   3.02758    104.559961
   2.99524    104.102847
   2.96290    103.722264
   2.93056    103.461975
   2.89821    103.419489
   2.86587    103.817268
   2.83353    104.454598
   2.80119    104.975553
   2.76884    105.328735
   2.73650    105.631906
   2.70416    105.844497
   2.67182    105.982586
   2.63947    106.029712
   2.60713    105.851659
   2.60713    105.851659
   2.56139    106.239355
   2.51565    106.226915
   2.46991    106.209759
   2.42417    106.448475
   2.37844    106.508798
   2.33270    105.236487
   2.28696    103.978467
   2.24122    103.301558
   2.19548    103.215028
   2.14974    103.075882
   2.10400    102.886098
   2.05826    102.651953
   2.01252    102.084470
   1.96678    101.405451
   1.92104    100.795834
   1.87530    100.274519
   1.82957     99.867273
   1.78383     99.571482
   1.73809     99.694097
   1.73809     99.694097
   1.64661     99.768590
   1.55513     99.982947
   1.46365    100.337108
   1.37217    100.825175
   1.28070    101.479711
   1.18922    102.208481
   1.09774    102.239402
   1.00626    101.321538
   0.91478    101.837760
   0.82330    102.411142
   0.73183    103.022951
   0.64035    103.587075
   0.54887    102.985643
   0.45739    103.043505
   0.36591    103.613699
   0.27443    104.511186
   0.18296    105.520826
   0.09148    104.789841
   0.00000    104.385213
 
# Band-Index   41
   0.00000    108.201709
   0.09148    106.791189
   0.18296    105.520838
   0.27443    104.511214
   0.36591    103.613733
   0.45739    103.043543
   0.54887    102.985677
   0.64035    103.587097
   0.73183    104.415905
   0.82330    104.934757
   0.91478    104.731715
   1.00626    103.970857
   1.09774    103.043747
   1.18922    102.786709
   1.28070    102.478273
   1.37217    101.978779
   1.46365    101.616743
   1.55513    101.354982
   1.64661    101.196876
   1.73809    101.144016
   1.73809    101.144016
   1.78383    101.193612
   1.82957    101.354189
   1.87530    101.557283
   1.92104    101.811303
   1.96678    102.098164
   2.01252    102.384086
   2.05826    102.819277
   2.10400    103.600043
   2.14974    104.419450
   2.19548    105.271615
   2.24122    106.150824
   2.28696    106.690478
   2.33270    106.637667
   2.37844    106.610539
   2.42417    107.774576
   2.46991    107.297115
   2.51565    106.847352
   2.56139    106.365523
   2.60713    106.243843
   2.60713    106.243843
   2.63947    106.341513
   2.67182    106.661678
   2.70416    107.030914
   2.73650    107.386168
   2.76884    107.687693
   2.80119    108.116859
   2.83353    108.139890
   2.86587    108.093290
   2.89821    108.171689
   2.93056    108.117833
   2.96290    108.071120
   2.99524    107.992618
   3.02758    107.885885
   3.05993    107.801210
   3.09227    107.735418
   3.12461    107.686201
   3.15695    107.651946
   3.18930    107.658116
   3.22164    107.651606
   3.22164    107.651606
   3.31866    107.384071
   3.41569    107.208188
   3.51272    107.050278
   3.60975    106.966437
   3.70677    106.644321
   3.80380    106.135419
   3.90083    105.409603
   3.99786    104.447349
   4.09488    103.665493
   4.19191    103.206197
   4.28894    103.229093
   4.38597    103.625254
   4.48299    104.158292
   4.58002    104.180616
   4.67705    104.533809
   4.77408    105.594571
   4.87110    105.961276
   4.96813    106.209320
   5.06516    108.201709
   5.06516    108.201709
   5.14438    106.632486
   5.22360    105.498455
   5.30282    105.097807
   5.38205    103.813617
   5.46127    102.718140
   5.54049    101.896765
   5.61971    101.614708
   5.69894    102.142758
   5.77816    103.148440
   5.85738    103.668107
   5.93660    103.955530
   6.01583    104.345822
   6.09505    104.843145
   6.17427    105.169308
   6.25350    104.954173
   6.33272    104.745962
   6.41194    104.598018
   6.49116    104.511220
   6.57039    104.480756
 
# Band-Index   42
   6.57039    104.480756
   6.49116    104.511220
   6.41194    104.598018
   6.33272    104.745962
   6.25350    104.954173
   6.17427    105.169308
   6.09505    105.363258
   6.01583    105.425458
   5.93660    105.121045
   5.85738    104.298258
   5.77816    103.148440
   5.69894    102.142758
   5.61971    101.614708
   5.54049    102.866307
   5.46127    103.139655
   5.38205    103.813617
   5.30282    105.097807
   5.22360    106.384664
   5.14438    107.505597
   5.06516    108.201709
   5.06516    108.201709
   4.96813    107.014446
   4.87110    106.547022
   4.77408    106.524750
   4.67705    106.180467
   4.58002    105.154134
   4.48299    104.290126
   4.38597    103.953334
   4.28894    103.655466
   4.19191    103.592629
   4.09488    103.729561
   3.99786    104.660659
   3.90083    106.087285
   3.80380    107.852914
   3.70677    109.860532
   3.60975    111.764208
   3.51272    111.175665
   3.41569    110.439276
   3.31866    109.129538
   3.22164    108.025979
   3.22164    108.025979
   3.18930    108.060951
   3.15695    107.927453
   3.12461    107.946907
   3.09227    107.964576
   3.05993    107.983388
   3.02758    108.005908
   2.99524    108.034447
   2.96290    108.125695
   2.93056    108.373633
   2.89821    108.573183
   2.86587    108.794561
   2.83353    109.102962
   2.80119    109.473282
   2.76884    109.902819
   2.73650    110.386865
   2.70416    110.899899
   2.67182    111.393189
   2.63947    111.779186
   2.60713    111.932542
   2.60713    111.932542
   2.56139    111.385542
   2.51565    110.284738
   2.46991    109.045819
   2.42417    107.803684
   2.37844    108.378679
   2.33270    107.927959
   2.28696    107.048192
   2.24122    106.775266
   2.19548    106.893722
   2.14974    107.041742
   2.10400    107.209429
   2.05826    107.381060
   2.01252    107.533058
   1.96678    107.628519
   1.92104    106.506590
   1.87530    105.091693
   1.82957    103.609440
   1.78383    102.145258
   1.73809    101.144069
   1.73809    101.144069
   1.64661    101.196929
   1.55513    101.355034
   1.46365    101.616795
   1.37217    101.978831
   1.28070    102.478321
   1.18922    103.009203
   1.09774    103.602465
   1.00626    104.210980
   0.91478    104.731743
   0.82330    104.934767
   0.73183    104.415911
   0.64035    103.700745
   0.54887    104.424431
   0.45739    105.185120
   0.36591    105.967230
   0.27443    106.741766
   0.18296    105.746393
   0.09148    106.791206
   0.00000    108.201709
 
# Band-Index   43
   0.00000    108.201745
   0.09148    107.991446
   0.18296    107.452246
   0.27443    106.973112
   0.36591    106.537165
   0.45739    106.610872
   0.54887    106.745351
   0.64035    106.808991
   0.73183    106.522188
   0.82330    105.967665
   0.91478    104.964624
   1.00626    104.211018
   1.09774    103.602509
   1.18922    103.009249
   1.28070    102.801717
   1.37217    103.669088
   1.46365    104.701856
   1.55513    105.716642
   1.64661    106.606832
   1.73809    106.791895
   1.73809    106.791895
   1.78383    107.017076
   1.82957    107.315860
   1.87530    107.460216
   1.92104    107.577912
   1.96678    107.767700
   2.01252    108.762508
   2.05826    109.401993
   2.10400    109.702755
   2.14974    109.761158
   2.19548    109.668280
   2.24122    109.482610
   2.28696    109.241335
   2.33270    108.994549
   2.37844    109.160179
   2.42417    110.006427
   2.46991    110.983919
   2.51565    111.985215
   2.56139    112.992871
   2.60713    113.991615
   2.60713    113.991615
   2.63947    113.451213
   2.67182    112.846407
   2.70416    112.230932
   2.73650    111.667385
   2.76884    111.225574
   2.80119    111.078746
   2.83353    111.093173
   2.86587    111.278310
   2.89821    111.622054
   2.93056    111.935318
   2.96290    112.189895
   2.99524    112.395889
   3.02758    112.454486
   3.05993    112.309509
   3.09227    111.970901
   3.12461    111.512861
   3.15695    111.028671
   3.18930    110.690204
   3.22164    110.539854
   3.22164    110.539854
   3.31866    111.010697
   3.41569    111.939381
   3.51272    112.947262
   3.60975    112.041085
   3.70677    111.982658
   3.80380    111.647477
   3.90083    110.532834
   3.99786    109.201112
   4.09488    107.892425
   4.19191    106.707753
   4.28894    105.747858
   4.38597    105.262461
   4.48299    105.673953
   4.58002    107.008592
   4.67705    106.694488
   4.77408    107.390765
   4.87110    106.883932
   4.96813    108.023265
   5.06516    108.201745
   5.06516    108.201745
   5.14438    107.505597
   5.22360    106.384664
   5.30282    106.633703
   5.38205    108.025120
   5.46127    105.931314
   5.54049    103.424448
   5.61971    103.167024
   5.69894    103.239262
   5.77816    103.358515
   5.85738    104.298258
   5.93660    105.121045
   6.01583    105.425458
   6.09505    105.363258
   6.17427    105.441834
   6.25350    106.131039
   6.33272    106.867688
   6.41194    107.697545
   6.49116    109.432741
   6.57039    110.092376
 
# Band-Index   44
   6.57039    110.595906
   6.49116    111.248999
   6.41194    112.036861
   6.33272    112.823369
   6.25350    113.286840
   6.17427    112.022990
   6.09505    110.704369
   6.01583    109.485401
   5.93660    108.651468
   5.85738    108.414450
   5.77816    108.555414
   5.69894    108.888183
   5.61971    109.264799
   5.54049    109.693871
   5.46127    109.914082
   5.38205    108.923650
   5.30282    110.448097
   5.22360    110.180980
   5.14438    109.243145
   5.06516    108.577087
   5.06516    108.577087
   4.96813    108.670781
   4.87110    108.728009
   4.77408    107.542211
   4.67705    109.258153
   4.58002    107.349794
   4.48299    106.572046
   4.38597    106.460184
   4.28894    107.337224
   4.19191    108.802115
   4.09488    109.883191
   3.99786    110.842137
   3.90083    111.978096
   3.80380    113.119013
   3.70677    114.173216
   3.60975    114.264714
   3.51272    114.341053
   3.41569    116.803123
   3.31866    116.808703
   3.22164    116.456731
   3.22164    116.456731
   3.18930    116.371005
   3.15695    116.170986
   3.12461    115.947572
   3.09227    115.767980
   3.05993    115.701887
   3.02758    115.806722
   2.99524    116.076878
   2.96290    116.439778
   2.93056    116.965262
   2.89821    116.807331
   2.86587    116.416764
   2.83353    116.166814
   2.80119    115.892325
   2.76884    115.582233
   2.73650    115.278259
   2.70416    114.974973
   2.67182    114.686499
   2.63947    114.401114
   2.60713    113.991623
   2.60713    113.991623
   2.56139    114.951085
   2.51565    115.799975
   2.46991    116.382326
   2.42417    116.595450
   2.37844    116.231641
   2.33270    115.542761
   2.28696    114.779572
   2.24122    113.956020
   2.19548    113.096735
   2.14974    112.232855
   2.10400    111.398022
   2.05826    110.627096
   2.01252    109.958381
   1.96678    109.439298
   1.92104    109.122488
   1.87530    109.002819
   1.82957    109.001003
   1.78383    108.939617
   1.73809    108.888794
   1.73809    108.888794
   1.64661    108.864094
   1.55513    108.399662
   1.46365    107.671647
   1.37217    106.716833
   1.28070    105.466002
   1.18922    103.920612
   1.09774    104.371898
   1.00626    105.745174
   0.91478    106.839472
   0.82330    107.689758
   0.73183    108.382095
   0.64035    109.161748
   0.54887    109.979995
   0.45739    109.814866
   0.36591    108.670047
   0.27443    107.115323
   0.18296    108.191681
   0.09148    108.625776
   0.00000    108.577087
 
# Band-Index   45
   0.00000    108.577087
   0.09148    110.073605
   0.18296    108.772152
   0.27443    109.017463
   0.36591    109.363899
   0.45739    110.155619
   0.54887    110.375311
   0.64035    110.168454
   0.73183    109.584706
   0.82330    109.931829
   0.91478    110.344128
   1.00626    110.856484
   1.09774    111.398544
   1.18922    111.932987
   1.28070    112.433792
   1.37217    112.844433
   1.46365    113.211601
   1.55513    113.492121
   1.64661    113.593229
   1.73809    112.582487
   1.73809    112.582487
   1.78383    112.886988
   1.82957    113.238352
   1.87530    113.327386
   1.92104    113.447236
   1.96678    113.743149
   2.01252    113.923089
   2.05826    114.135396
   2.10400    114.381102
   2.14974    114.660733
   2.19548    114.973689
   2.24122    115.317072
   2.28696    115.683548
   2.33270    116.056266
   2.37844    116.396029
   2.42417    116.812376
   2.46991    117.334518
   2.51565    116.602675
   2.56139    115.451323
   2.60713    114.887474
   2.60713    114.887474
   2.63947    115.115158
   2.67182    115.695669
   2.70416    116.396146
   2.73650    117.131637
   2.76884    117.857063
   2.80119    117.816962
   2.83353    117.690268
   2.86587    117.496849
   2.89821    117.284753
   2.93056    117.016986
   2.96290    117.136190
   2.99524    117.284145
   3.02758    117.405768
   3.05993    117.503711
   3.09227    117.580634
   3.12461    117.638876
   3.15695    117.680303
   3.18930    117.558410
   3.22164    117.483763
   3.22164    117.483763
   3.31866    118.887117
   3.41569    117.498088
   3.51272    117.171022
   3.60975    115.648293
   3.70677    114.776532
   3.80380    113.304777
   3.90083    112.762804
   3.99786    112.547510
   4.09488    110.620039
   4.19191    109.101018
   4.28894    108.439927
   4.38597    107.876527
   4.48299    107.399930
   4.58002    107.839703
   4.67705    109.345428
   4.77408    109.551928
   4.87110    109.391086
   4.96813    109.724396
   5.06516    108.577087
   5.06516    108.577087
   5.14438    109.243145
   5.22360    110.180980
   5.30282    110.448097
   5.38205    110.221494
   5.46127    109.981923
   5.54049    109.693871
   5.61971    109.264799
   5.69894    108.888183
   5.77816    108.555414
   5.85738    108.414450
   5.93660    108.651468
   6.01583    109.485401
   6.09505    110.704369
   6.17427    112.022990
   6.25350    113.286840
   6.33272    114.406304
   6.41194    115.337333
   6.49116    116.131418
   6.57039    116.342495
 
# Band-Index   46
   6.57039    116.342495
   6.49116    116.131418
   6.41194    115.337333
   6.33272    114.406304
   6.25350    113.718458
   6.17427    114.220475
   6.09505    114.568996
   6.01583    114.770865
   5.93660    114.851083
   5.85738    114.829854
   5.77816    114.571869
   5.69894    114.079660
   5.61971    113.014698
   5.54049    111.532637
   5.46127    109.981923
   5.38205    110.221494
   5.30282    111.403429
   5.22360    110.967448
   5.14438    110.198199
   5.06516    108.577171
   5.06516    108.577171
   4.96813    110.553402
   4.87110    111.427104
   4.77408    112.079189
   4.67705    110.069717
   4.58002    110.087121
   4.48299    110.424677
   4.38597    110.959571
   4.28894    111.427125
   4.19191    111.873688
   4.09488    112.256444
   3.99786    112.812022
   3.90083    115.279514
   3.80380    116.311086
   3.70677    115.437368
   3.60975    116.294772
   3.51272    117.705821
   3.41569    118.576866
   3.31866    118.911513
   3.22164    117.728500
   3.22164    117.728500
   3.18930    117.721558
   3.15695    117.729248
   3.12461    117.930218
   3.09227    118.133101
   3.05993    118.331043
   3.02758    118.527699
   2.99524    118.733686
   2.96290    118.964738
   2.93056    119.238425
   2.89821    119.567914
   2.86587    119.898240
   2.83353    119.487972
   2.80119    118.816655
   2.76884    117.873242
   2.73650    117.952852
   2.70416    118.042066
   2.67182    118.125711
   2.63947    118.193576
   2.60713    118.222209
   2.60713    118.222209
   2.56139    118.102661
   2.51565    117.784492
   2.46991    117.925838
   2.42417    119.385689
   2.37844    120.353346
   2.33270    120.201204
   2.28696    119.980830
   2.24122    119.635604
   2.19548    118.939069
   2.14974    117.753182
   2.10400    116.457108
   2.05826    115.324629
   2.01252    114.500389
   1.96678    114.016177
   1.92104    113.789304
   1.87530    113.712170
   1.82957    113.708918
   1.78383    113.698691
   1.73809    113.650801
   1.73809    113.650801
   1.64661    113.674811
   1.55513    114.336151
   1.46365    115.227376
   1.37217    116.081884
   1.28070    116.797558
   1.18922    115.976955
   1.09774    114.410986
   1.00626    112.748370
   0.91478    111.226074
   0.82330    110.178915
   0.73183    109.831225
   0.64035    110.428857
   0.54887    111.279290
   0.45739    112.679996
   0.36591    113.850808
   0.27443    112.828210
   0.18296    111.510677
   0.09148    110.073641
   0.00000    108.577171
 
# Band-Index   47
   0.00000    112.361624
   0.09148    110.342288
   0.18296    111.510688
   0.27443    112.828214
   0.36591    113.850812
   0.45739    112.705439
   0.54887    111.450938
   0.64035    110.428883
   0.73183    109.831247
   0.82330    110.178918
   0.91478    111.226078
   1.00626    112.748375
   1.09774    114.410989
   1.18922    115.976956
   1.28070    117.273162
   1.37217    118.110872
   1.46365    118.218926
   1.55513    118.389823
   1.64661    118.430238
   1.73809    117.975761
   1.73809    117.975760
   1.78383    118.019364
   1.82957    118.464301
   1.87530    118.499729
   1.92104    118.552925
   1.96678    118.824504
   2.01252    118.907224
   2.05826    119.032087
   2.10400    119.211848
   2.14974    119.461061
   2.19548    119.796097
   2.24122    120.233500
   2.28696    120.784331
   2.33270    121.437163
   2.37844    120.794985
   2.42417    119.924160
   2.46991    119.408779
   2.51565    119.390396
   2.56139    119.623301
   2.60713    119.920377
   2.60713    119.920377
   2.63947    119.801273
   2.67182    119.730327
   2.70416    119.703284
   2.73650    119.717398
   2.76884    119.771936
   2.80119    119.874127
   2.83353    120.040684
   2.86587    119.965748
   2.89821    120.362270
   2.93056    120.560601
   2.96290    120.727720
   2.99524    120.899638
   3.02758    121.055274
   3.05993    121.187764
   3.09227    121.293339
   3.12461    121.371682
   3.15695    121.424688
   3.18930    121.519865
   3.22164    121.530289
   3.22164    121.530289
   3.31866    119.178673
   3.41569    118.819994
   3.51272    118.520783
   3.60975    119.910053
   3.70677    120.562081
   3.80380    118.348090
   3.90083    118.235276
   3.99786    119.311641
   4.09488    118.503042
   4.19191    117.756455
   4.28894    117.024470
   4.38597    116.292499
   4.48299    114.294135
   4.58002    112.008840
   4.67705    110.184053
   4.77408    112.502837
   4.87110    111.741701
   4.96813    111.093841
   5.06516    112.361624
   5.06516    112.361624
   5.14438    111.614533
   5.22360    110.967448
   5.30282    111.403429
   5.38205    112.433546
   5.46127    113.421921
   5.54049    114.204745
   5.61971    114.797612
   5.69894    115.402719
   5.77816    116.020818
   5.85738    116.939317
   5.93660    117.630366
   6.01583    118.338543
   6.09505    119.018362
   6.17427    119.597754
   6.25350    119.998125
   6.33272    119.893323
   6.41194    119.864333
   6.49116    119.985110
   6.57039    119.959504
 
# Band-Index   48
   6.57039    119.959504
   6.49116    119.985110
   6.41194    119.864333
   6.33272    119.893323
   6.25350    119.998125
   6.17427    119.597754
   6.09505    119.018362
   6.01583    118.338543
   5.93660    117.630366
   5.85738    116.939317
   5.77816    116.020818
   5.69894    115.402720
   5.61971    114.797612
   5.54049    114.204745
   5.46127    113.421921
   5.38205    112.433546
   5.30282    111.936354
   5.22360    112.043298
   5.14438    111.614533
   5.06516    112.361624
   5.06516    112.361624
   4.96813    111.727859
   4.87110    113.033268
   4.77408    112.716781
   4.67705    113.575357
   4.58002    114.737589
   4.48299    115.539405
   4.38597    116.701457
   4.28894    118.528243
   4.19191    119.582608
   4.09488    120.151161
   3.99786    119.417893
   3.90083    120.202184
   3.80380    121.015332
   3.70677    121.854444
   3.60975    122.381110
   3.51272    122.936715
   3.41569    123.305160
   3.31866    123.124847
   3.22164    122.962937
   3.22164    122.962937
   3.18930    122.935880
   3.15695    122.858772
   3.12461    122.773239
   3.09227    122.683698
   3.05993    122.597432
   3.02758    122.516250
   2.99524    122.425839
   2.96290    122.003176
   2.93056    121.540530
   2.89821    121.025637
   2.86587    120.387589
   2.83353    120.209908
   2.80119    120.433351
   2.76884    120.527133
   2.73650    120.495194
   2.70416    120.374277
   2.67182    120.215828
   2.63947    120.061256
   2.60713    119.920483
   2.60713    119.920483
   2.56139    120.179393
   2.51565    120.351781
   2.46991    120.425831
   2.42417    120.424870
   2.37844    121.020951
   2.33270    121.776463
   2.28696    122.770652
   2.24122    121.670395
   2.19548    120.549840
   2.14974    119.977469
   2.10400    119.650693
   2.05826    119.397543
   2.01252    119.177160
   1.96678    118.980407
   1.92104    118.807062
   1.87530    118.660254
   1.82957    118.544517
   1.78383    118.427787
   1.73809    117.975770
   1.73809    117.975771
   1.64661    118.430245
   1.55513    118.389828
   1.46365    118.218929
   1.37217    118.110875
   1.28070    117.273166
   1.18922    117.243778
   1.09774    116.620501
   1.00626    115.233458
   0.91478    114.006532
   0.82330    112.935101
   0.73183    111.854423
   0.64035    111.052116
   0.54887    111.450964
   0.45739    112.705463
   0.36591    114.006115
   0.27443    115.777523
   0.18296    114.617781
   0.09148    112.971590
   0.00000    112.361624
 
# Band-Index   49
   0.00000    112.361669
   0.09148    112.971608
   0.18296    114.617790
   0.27443    115.971737
   0.36591    114.249763
   0.45739    113.107094
   0.54887    113.995848
   0.64035    115.864141
   0.73183    117.824191
   0.82330    119.395214
   0.91478    119.285872
   1.00626    118.511661
   1.09774    117.809386
   1.18922    118.156146
   1.28070    119.826155
   1.37217    121.263907
   1.46365    122.591596
   1.55513    123.824249
   1.64661    124.617135
   1.73809    124.590888
   1.73809    124.590888
   1.78383    124.756407
   1.82957    124.874389
   1.87530    124.847556
   1.92104    124.808761
   1.96678    124.910129
   2.01252    124.840329
   2.05826    124.749380
   2.10400    124.628592
   2.14974    124.455938
   2.19548    124.168695
   2.24122    123.625289
   2.28696    123.128370
   2.33270    122.482708
   2.37844    122.091536
   2.42417    122.337520
   2.46991    122.008723
   2.51565    121.609580
   2.56139    121.296209
   2.60713    121.175218
   2.60713    121.175218
   2.63947    121.240410
   2.67182    121.369718
   2.70416    121.504985
   2.73650    121.630838
   2.76884    121.754710
   2.80119    121.917566
   2.83353    122.047732
   2.86587    122.152444
   2.89821    122.277456
   2.93056    122.370167
   2.96290    122.361929
   2.99524    122.438827
   3.02758    122.810917
   3.05993    123.178081
   3.09227    123.539577
   3.12461    123.895256
   3.15695    124.227854
   3.18930    124.162837
   3.22164    124.112439
   3.22164    124.112439
   3.31866    123.762616
   3.41569    124.489773
   3.51272    123.581711
   3.60975    122.713612
   3.70677    121.932903
   3.80380    121.687756
   3.90083    121.640345
   3.99786    121.744231
   4.09488    120.606357
   4.19191    120.330165
   4.28894    118.872832
   4.38597    117.416967
   4.48299    116.194837
   4.58002    114.916023
   4.67705    113.838748
   4.77408    112.843725
   4.87110    114.241338
   4.96813    112.966596
   5.06516    112.361669
   5.06516    112.361669
   5.14438    112.526375
   5.22360    112.943880
   5.30282    113.870293
   5.38205    114.584772
   5.46127    115.449295
   5.54049    115.987469
   5.61971    116.355995
   5.69894    117.058143
   5.77816    118.208272
   5.85738    119.465308
   5.93660    120.553116
   6.01583    121.407344
   6.09505    122.091624
   6.17427    122.712710
   6.25350    123.363458
   6.33272    124.049214
   6.41194    124.906223
   6.49116    125.870606
   6.57039    126.147906
 
# Band-Index   50
   6.57039    126.147906
   6.49116    126.065817
   6.41194    125.801440
   6.33272    125.472088
   6.25350    125.125368
   6.17427    124.855114
   6.09505    124.665446
   6.01583    124.433922
   5.93660    123.996694
   5.85738    123.263625
   5.77816    122.217348
   5.69894    121.013433
   5.61971    119.854785
   5.54049    119.038345
   5.46127    117.892825
   5.38205    115.892234
   5.30282    113.942426
   5.22360    115.332377
   5.14438    115.317798
   5.06516    114.029190
   5.06516    114.029190
   4.96813    115.145616
   4.87110    115.487461
   4.77408    115.565100
   4.67705    117.376650
   4.58002    118.926913
   4.48299    120.336170
   4.38597    121.561036
   4.28894    121.870079
   4.19191    121.927619
   4.09488    121.803185
   3.99786    121.844496
   3.90083    122.861642
   3.80380    123.497922
   3.70677    122.096092
   3.60975    123.548547
   3.51272    125.767241
   3.41569    125.118023
   3.31866    125.398296
   3.22164    124.628337
   3.22164    124.628337
   3.18930    124.518498
   3.15695    124.287860
   3.12461    124.475718
   3.09227    124.687001
   3.05993    124.891661
   3.02758    125.059573
   2.99524    125.164823
   2.96290    125.195809
   2.93056    125.162887
   2.89821    125.013428
   2.86587    124.531750
   2.83353    124.385535
   2.80119    124.306686
   2.76884    124.274821
   2.73650    124.277661
   2.70416    124.305929
   2.67182    124.355450
   2.63947    124.424777
   2.60713    124.515088
   2.60713    124.515088
   2.56139    124.367123
   2.51565    124.314730
   2.46991    124.332436
   2.42417    124.130180
   2.37844    124.049607
   2.33270    124.543082
   2.28696    123.963432
   2.24122    125.332934
   2.19548    126.104985
   2.14974    127.153326
   2.10400    128.328604
   2.05826    129.405829
   2.01252    130.312337
   1.96678    131.214960
   1.92104    132.059283
   1.87530    132.819708
   1.82957    133.359293
   1.78383    133.542897
   1.73809    133.526069
   1.73809    133.526429
   1.64661    133.540273
   1.55513    133.025511
   1.46365    130.758044
   1.37217    128.970868
   1.28070    127.750137
   1.18922    126.968623
   1.09774    126.430181
   1.00626    125.512750
   0.91478    124.041960
   0.82330    122.387946
   0.73183    120.510540
   0.64035    118.877790
   0.54887    117.306835
   0.45739    115.820058
   0.36591    114.612093
   0.27443    115.971755
   0.18296    115.032791
   0.09148    114.302997
   0.00000    114.029190
 
# Band-Index   51
   0.00000    114.029190
   0.09148    116.226545
   0.18296    117.676988
   0.27443    116.029361
   0.36591    114.612101
   0.45739    115.820071
   0.54887    117.306850
   0.64035    118.877806
   0.73183    120.510555
   0.82330    122.387962
   0.91478    124.041973
   1.00626    125.512757
   1.09774    126.430186
   1.18922    126.968633
   1.28070    127.750151
   1.37217    128.970882
   1.46365    130.758061
   1.55513    133.025538
   1.64661    135.182869
   1.73809    135.508855
   1.73809    135.508759
   1.78383    135.433445
   1.82957    135.306229
   1.87530    134.657610
   1.92104    133.381983
   1.96678    132.106432
   2.01252    130.826316
   2.05826    129.562106
   2.10400    128.510656
   2.14974    127.636562
   2.19548    126.791223
   2.24122    125.459314
   2.28696    124.904051
   2.33270    124.573957
   2.37844    124.512942
   2.42417    124.401045
   2.46991    124.960445
   2.51565    125.155468
   2.56139    124.779181
   2.60713    124.515116
   2.60713    124.515117
   2.63947    124.624930
   2.67182    124.744919
   2.70416    124.854249
   2.73650    124.909775
   2.76884    124.870807
   2.80119    124.816621
   2.83353    124.756314
   2.86587    124.756348
   2.89821    125.092010
   2.93056    125.343311
   2.96290    125.735121
   2.99524    126.223851
   3.02758    126.726615
   3.05993    127.125869
   3.09227    127.254032
   3.12461    127.096510
   3.15695    126.815308
   3.18930    126.556452
   3.22164    126.446693
   3.22164    126.446693
   3.31866    127.307082
   3.41569    127.621406
   3.51272    127.116147
   3.60975    126.117856
   3.70677    124.993890
   3.80380    123.908346
   3.90083    125.264058
   3.99786    126.634791
   4.09488    125.656930
   4.19191    123.982010
   4.28894    122.806803
   4.38597    121.718263
   4.48299    120.936440
   4.58002    119.830841
   4.67705    117.902057
   4.77408    115.809659
   4.87110    115.542464
   4.96813    116.183557
   5.06516    114.029190
   5.06516    114.029190
   5.14438    115.317798
   5.22360    117.454144
   5.30282    119.002117
   5.38205    118.848246
   5.46127    118.699706
   5.54049    119.372925
   5.61971    120.141490
   5.69894    121.151006
   5.77816    122.217352
   5.85738    123.263625
   5.93660    123.996695
   6.01583    124.433922
   6.09505    124.665447
   6.17427    124.855115
   6.25350    125.125369
   6.33272    125.472089
   6.41194    125.801442
   6.49116    126.065817
   6.57039    126.664082
 
# Band-Index   52
   6.57039    127.319971
   6.49116    128.192365
   6.41194    129.371903
   6.33272    130.547126
   6.25350    131.441640
   6.17427    131.200525
   6.09505    129.653540
   6.01583    127.758282
   5.93660    125.886559
   5.85738    124.161242
   5.77816    122.366377
   5.69894    121.151018
   5.61971    120.141492
   5.54049    119.372925
   5.46127    118.927365
   5.38205    118.848246
   5.30282    119.002117
   5.22360    117.454144
   5.14438    118.590090
   5.06516    121.234807
   5.06516    121.234808
   4.96813    118.591589
   4.87110    117.292047
   4.77408    119.458545
   4.67705    121.707218
   4.58002    123.808638
   4.48299    125.388869
   4.38597    126.861277
   4.28894    127.763988
   4.19191    128.164636
   4.09488    128.321322
   3.99786    128.590983
   3.90083    129.237467
   3.80380    129.709471
   3.70677    129.942170
   3.60975    129.681859
   3.51272    128.231426
   3.41569    127.811125
   3.31866    127.990397
   3.22164    129.131551
   3.22164    129.131551
   3.18930    129.116236
   3.15695    129.064957
   3.12461    129.008260
   3.09227    128.948660
   3.05993    128.896588
   3.02758    128.741666
   2.99524    128.391324
   2.96290    128.025865
   2.93056    127.684207
   2.89821    127.361955
   2.86587    126.859150
   2.83353    126.621498
   2.80119    126.431149
   2.76884    126.358058
   2.73650    126.493779
   2.70416    126.849295
   2.67182    127.353461
   2.63947    127.916515
   2.60713    128.286976
   2.60713    128.286975
   2.56139    127.306025
   2.51565    126.078394
   2.46991    125.586373
   2.42417    125.890035
   2.37844    125.638692
   2.33270    124.667381
   2.28696    125.223551
   2.24122    125.982732
   2.19548    126.966931
   2.14974    128.482309
   2.10400    129.999830
   2.05826    131.510276
   2.01252    132.996531
   1.96678    134.423016
   1.92104    135.560953
   1.87530    135.309222
   1.82957    135.895348
   1.78383    137.025768
   1.73809    137.658940
   1.73809    137.656464
   1.64661    135.553367
   1.55513    133.437113
   1.46365    133.258587
   1.37217    132.969035
   1.28070    132.135303
   1.18922    130.590795
   1.09774    128.660485
   1.00626    126.561983
   0.91478    124.615503
   0.82330    123.682661
   0.73183    123.273575
   0.64035    121.642984
   0.54887    120.093500
   0.45739    118.634029
   0.36591    117.280169
   0.27443    116.060926
   0.18296    117.715707
   0.09148    119.628400
   0.00000    121.234809
 
# Band-Index   53
   0.00000    121.234835
   0.09148    119.628406
   0.18296    117.739769
   0.27443    116.802986
   0.36591    119.096341
   0.45739    121.575908
   0.54887    123.656946
   0.64035    125.406428
   0.73183    124.596799
   0.82330    125.160238
   0.91478    126.938810
   1.00626    128.147541
   1.09774    129.111104
   1.18922    130.744319
   1.28070    132.667105
   1.37217    134.134701
   1.46365    133.955467
   1.55513    134.448182
   1.64661    135.553495
   1.73809    137.671946
   1.73809    137.660018
   1.78383    137.574769
   1.82957    137.312609
   1.87530    136.711317
   1.92104    135.710699
   1.96678    136.121708
   2.01252    136.672657
   2.05826    135.865050
   2.10400    134.660825
   2.14974    133.495492
   2.19548    132.380366
   2.24122    131.335173
   2.28696    130.400998
   2.33270    129.683911
   2.37844    129.486266
   2.42417    130.224369
   2.46991    131.660143
   2.51565    131.546699
   2.56139    130.155717
   2.60713    129.122976
   2.60713    129.122978
   2.63947    129.531145
   2.67182    130.219202
   2.70416    130.968648
   2.73650    131.749260
   2.76884    132.549817
   2.80119    132.033328
   2.83353    131.349307
   2.86587    130.713007
   2.89821    130.184524
   2.93056    129.726845
   2.96290    129.362522
   2.99524    129.135358
   3.02758    129.058430
   3.05993    129.288553
   3.09227    129.642888
   3.12461    130.068187
   3.15695    130.589169
   3.18930    131.026019
   3.22164    131.303028
   3.22164    131.303028
   3.31866    129.987729
   3.41569    128.697664
   3.51272    128.662799
   3.60975    131.314956
   3.70677    133.119727
   3.80380    131.682723
   3.90083    130.127571
   3.99786    128.701541
   4.09488    128.481498
   4.19191    128.266785
   4.28894    128.209513
   4.38597    126.952411
   4.48299    125.603581
   4.58002    124.333700
   4.67705    123.218278
   4.77408    121.863294
   4.87110    119.273610
   4.96813    118.679199
   5.06516    121.234817
   5.06516    121.234817
   5.14438    120.654018
   5.22360    119.932687
   5.30282    119.374266
   5.38205    118.863396
   5.46127    118.927366
   5.54049    119.943302
   5.61971    122.043338
   5.69894    124.192711
   5.77816    126.391060
   5.85738    128.880626
   5.93660    131.060530
   6.01583    131.741271
   6.09505    132.771218
   6.17427    133.897816
   6.25350    134.470357
   6.33272    134.225187
   6.41194    134.210034
   6.49116    134.305195
   6.57039    134.356504
 
# Band-Index   54
   6.57039    134.356506
   6.49116    134.305202
   6.41194    134.210119
   6.33272    134.225489
   6.25350    134.471689
   6.17427    133.899916
   6.09505    132.772664
   6.01583    131.741711
   5.93660    131.060606
   5.85738    130.804935
   5.77816    130.833721
   5.69894    130.860559
   5.61971    129.965952
   5.54049    127.901431
   5.46127    125.366751
   5.38205    122.642839
   5.30282    120.235583
   5.22360    119.932688
   5.14438    120.654020
   5.06516    121.235133
   5.06516    121.234925
   4.96813    121.398986
   4.87110    121.860780
   4.77408    122.417710
   4.67705    123.224080
   4.58002    124.571821
   4.48299    126.100695
   4.38597    127.816851
   4.28894    128.590619
   4.19191    130.301150
   4.09488    130.668058
   3.99786    131.330252
   3.90083    133.134407
   3.80380    135.456800
   3.70677    134.307621
   3.60975    134.379293
   3.51272    134.869181
   3.41569    132.503752
   3.31866    130.634742
   3.22164    131.381255
   3.22164    131.381255
   3.18930    131.157760
   3.15695    130.634663
   3.12461    130.139047
   3.09227    129.697838
   3.05993    129.544972
   3.02758    129.778905
   2.99524    130.197141
   2.96290    130.702796
   2.93056    131.291177
   2.89821    131.874409
   2.86587    132.460862
   2.83353    133.074792
   2.80119    133.486662
   2.76884    132.758581
   2.73650    133.537300
   2.70416    134.351529
   2.67182    135.192322
   2.63947    136.045714
   2.60713    136.805119
   2.60713    136.804226
   2.56139    135.153049
   2.51565    133.366202
   2.46991    132.975875
   2.42417    134.713789
   2.37844    136.132915
   2.33270    137.104137
   2.28696    137.209852
   2.24122    137.331020
   2.19548    137.467503
   2.14974    137.619808
   2.10400    137.788823
   2.05826    137.299183
   2.01252    137.100802
   1.96678    138.361454
   1.92104    138.861230
   1.87530    139.335537
   1.82957    139.299681
   1.78383    139.230168
   1.73809    139.137321
   1.73809    139.105179
   1.64661    139.009116
   1.55513    138.750824
   1.46365    136.862131
   1.37217    134.718443
   1.28070    132.667128
   1.18922    130.744343
   1.09774    129.111128
   1.00626    128.147556
   0.91478    127.793087
   0.82330    127.435001
   0.73183    126.681211
   0.64035    125.406459
   0.54887    123.656981
   0.45739    121.575943
   0.36591    119.096374
   0.27443    116.803009
   0.18296    117.739781
   0.09148    119.740116
   0.00000    121.234972
 
# Band-Index   55
   0.00000    121.614703
   0.09148    119.879627
   0.18296    119.444705
   0.27443    122.246244
   0.36591    125.065446
   0.45739    127.947619
   0.54887    128.492890
   0.64035    126.410960
   0.73183    126.681235
   0.82330    127.435013
   0.91478    127.793087
   1.00626    128.787172
   1.09774    130.703841
   1.18922    132.687759
   1.28070    134.406068
   1.37217    134.718461
   1.46365    136.875670
   1.55513    139.079393
   1.64661    141.128167
   1.73809    139.221739
   1.73809    139.224549
   1.78383    139.557754
   1.82957    140.089321
   1.87530    139.478322
   1.92104    139.411885
   1.96678    138.482077
   2.01252    138.205549
   2.05826    137.978267
   2.10400    137.985829
   2.14974    138.712390
   2.19548    138.642415
   2.24122    138.567817
   2.28696    138.526675
   2.33270    137.508104
   2.37844    137.013245
   2.42417    136.937659
   2.46991    136.881216
   2.51565    136.839924
   2.56139    136.812852
   2.60713    136.877833
   2.60713    136.877805
   2.63947    136.543809
   2.67182    136.079188
   2.70416    135.522145
   2.73650    134.924587
   2.76884    134.309661
   2.80119    133.695343
   2.83353    134.289354
   2.86587    135.044166
   2.89821    135.773777
   2.93056    135.615141
   2.96290    135.226538
   2.99524    134.795594
   3.02758    134.351059
   3.05993    133.901028
   3.09227    133.448136
   3.12461    132.993758
   3.15695    132.540953
   3.18930    132.105618
   3.22164    131.829463
   3.22164    131.829462
   3.31866    132.714708
   3.41569    134.172792
   3.51272    135.337781
   3.60975    135.314747
   3.70677    135.859804
   3.80380    135.499130
   3.90083    134.721991
   3.99786    133.496332
   4.09488    131.978291
   4.19191    131.356231
   4.28894    129.692378
   4.38597    128.090666
   4.48299    126.991535
   4.58002    125.253435
   4.67705    123.852011
   4.77408    123.059121
   4.87110    121.950242
   4.96813    121.529270
   5.06516    121.614393
   5.06516    121.614485
   5.14438    120.926218
   5.22360    120.097053
   5.30282    120.235584
   5.38205    122.643022
   5.46127    125.366908
   5.54049    127.903558
   5.61971    129.972162
   5.69894    130.867845
   5.77816    130.836156
   5.85738    130.804976
   5.93660    131.176675
   6.01583    133.521276
   6.09505    135.911356
   6.17427    135.234540
   6.25350    135.830469
   6.33272    137.631153
   6.41194    139.215798
   6.49116    140.789165
   6.57039    141.515705
 
# Band-Index   56
   6.57039    141.522260
   6.49116    140.801429
   6.41194    139.287705
   6.33272    137.759340
   6.25350    136.493209
   6.17427    136.118085
   6.09505    135.955353
   6.01583    136.913915
   5.93660    137.265147
   5.85738    136.447657
   5.77816    134.929534
   5.69894    133.311700
   5.61971    131.853557
   5.54049    130.189563
   5.46127    128.542949
   5.38205    127.012419
   5.30282    125.559932
   5.22360    124.225813
   5.14438    123.033816
   5.06516    122.308225
   5.06516    122.308231
   4.96813    122.380473
   4.87110    122.616008
   4.77408    123.568843
   4.67705    124.630512
   4.58002    126.285590
   4.48299    128.473090
   4.38597    130.721285
   4.28894    131.901034
   4.19191    131.695191
   4.09488    133.776372
   3.99786    135.837845
   3.90083    136.768416
   3.80380    136.426439
   3.70677    138.147739
   3.60975    137.320329
   3.51272    135.655537
   3.41569    134.539557
   3.31866    134.422668
   3.22164    134.555460
   3.22164    134.555461
   3.18930    134.816204
   3.15695    135.448042
   3.12461    136.260713
   3.09227    137.160279
   3.05993    138.108064
   3.02758    139.089357
   2.99524    138.978565
   2.96290    138.170588
   2.93056    137.398247
   2.89821    136.851625
   2.86587    136.904315
   2.83353    137.273915
   2.80119    137.691294
   2.76884    138.082128
   2.73650    138.517731
   2.70416    138.889607
   2.67182    138.794303
   2.63947    137.808017
   2.60713    136.882940
   2.60713    136.881023
   2.56139    138.207370
   2.51565    138.551776
   2.46991    138.578638
   2.42417    138.571752
   2.37844    138.535721
   2.33270    138.521411
   2.28696    138.802036
   2.24122    139.794201
   2.19548    139.442836
   2.14974    138.797062
   2.10400    138.905361
   2.05826    139.093594
   2.01252    139.430507
   1.96678    139.492614
   1.92104    139.764918
   1.87530    140.120554
   1.82957    140.130346
   1.78383    139.580135
   1.73809    139.278786
   1.73809    139.292266
   1.64661    141.302016
   1.55513    139.092350
   1.46365    138.409866
   1.37217    136.844206
   1.28070    134.738148
   1.18922    134.805114
   1.09774    135.282539
   1.00626    135.779808
   0.91478    136.260597
   0.82330    136.577478
   0.73183    134.732568
   0.64035    132.705646
   0.54887    130.432215
   0.45739    130.543775
   0.36591    131.356289
   0.27443    128.975405
   0.18296    126.435584
   0.09148    124.073411
   0.00000    122.308224
